PE IR       SUBTECH     SPECTRUM    ASCII       PEDS        4.00        
   -1
G001-50C.asc
17/02/23
10:47:00.00
17/02/23
10:47:35.00
Administrator
Sample 125 By Administrator Date Thursday, February 23 2017
400.000000
#HDR
-1
-1
#GR
cm-1
A
1.0
0.0
4000.000000
-1.000000
3601
8
1.233584
0.000143
#DATA
4000.000000	0.007135
3999.000000	0.007284
3998.000000	0.007436
3997.000000	0.007595
3996.000000	0.007757
3995.000000	0.007921
3994.000000	0.008091
3993.000000	0.008269
3992.000000	0.008442
3991.000000	0.008597
3990.000000	0.008737
3989.000000	0.008880
3988.000000	0.009035
3987.000000	0.009193
3986.000000	0.009340
3985.000000	0.009477
3984.000000	0.009609
3983.000000	0.009739
3982.000000	0.009866
3981.000000	0.010000
3980.000000	0.010161
3979.000000	0.010355
3978.000000	0.010565
3977.000000	0.010765
3976.000000	0.010944
3975.000000	0.011106
3974.000000	0.011262
3973.000000	0.011414
3972.000000	0.011554
3971.000000	0.011679
3970.000000	0.011793
3969.000000	0.011909
3968.000000	0.012037
3967.000000	0.012186
3966.000000	0.012358
3965.000000	0.012548
3964.000000	0.012740
3963.000000	0.012922
3962.000000	0.013091
3961.000000	0.013261
3960.000000	0.013438
3959.000000	0.013603
3958.000000	0.013727
3957.000000	0.013806
3956.000000	0.013873
3955.000000	0.013969
3954.000000	0.014119
3953.000000	0.014326
3952.000000	0.014583
3951.000000	0.014865
3950.000000	0.015137
3949.000000	0.015371
3948.000000	0.015577
3947.000000	0.015799
3946.000000	0.016066
3945.000000	0.016337
3944.000000	0.016515
3943.000000	0.016561
3942.000000	0.016548
3941.000000	0.016585
3940.000000	0.016688
3939.000000	0.016778
3938.000000	0.016816
3937.000000	0.016886
3936.000000	0.017096
3935.000000	0.017442
3934.000000	0.017802
3933.000000	0.018061
3932.000000	0.018204
3931.000000	0.018288
3930.000000	0.018369
3929.000000	0.018466
3928.000000	0.018581
3927.000000	0.018712
3926.000000	0.018835
3925.000000	0.018932
3924.000000	0.019048
3923.000000	0.019257
3922.000000	0.019550
3921.000000	0.019837
3920.000000	0.020067
3919.000000	0.020263
3918.000000	0.020433
3917.000000	0.020532
3916.000000	0.020553
3915.000000	0.020570
3914.000000	0.020636
3913.000000	0.020709
3912.000000	0.020744
3911.000000	0.020784
3910.000000	0.020903
3909.000000	0.021125
3908.000000	0.021422
3907.000000	0.021754
3906.000000	0.022091
3905.000000	0.022402
3904.000000	0.022674
3903.000000	0.022934
3902.000000	0.023203
3901.000000	0.023413
3900.000000	0.023457
3899.000000	0.023359
3898.000000	0.023294
3897.000000	0.023389
3896.000000	0.023592
3895.000000	0.023810
3894.000000	0.024024
3893.000000	0.024230
3892.000000	0.024351
3891.000000	0.024332
3890.000000	0.024301
3889.000000	0.024483
3888.000000	0.024887
3887.000000	0.025261
3886.000000	0.025453
3885.000000	0.025598
3884.000000	0.025926
3883.000000	0.026451
3882.000000	0.026887
3881.000000	0.027005
3880.000000	0.026923
3879.000000	0.026930
3878.000000	0.027183
3877.000000	0.027580
3876.000000	0.027875
3875.000000	0.027960
3874.000000	0.027962
3873.000000	0.028081
3872.000000	0.028364
3871.000000	0.028596
3870.000000	0.028572
3869.000000	0.028454
3868.000000	0.028610
3867.000000	0.029091
3866.000000	0.029544
3865.000000	0.029767
3864.000000	0.029961
3863.000000	0.030308
3862.000000	0.030723
3861.000000	0.031063
3860.000000	0.031317
3859.000000	0.031493
3858.000000	0.031480
3857.000000	0.031178
3856.000000	0.030694
3855.000000	0.030312
3854.000000	0.030205
3853.000000	0.030198
3852.000000	0.030178
3851.000000	0.030441
3850.000000	0.031177
3849.000000	0.032193
3848.000000	0.033323
3847.000000	0.034465
3846.000000	0.035433
3845.000000	0.036089
3844.000000	0.036444
3843.000000	0.036584
3842.000000	0.036587
3841.000000	0.036523
3840.000000	0.036418
3839.000000	0.036308
3838.000000	0.036282
3837.000000	0.036386
3836.000000	0.036601
3835.000000	0.036927
3834.000000	0.037387
3833.000000	0.037955
3832.000000	0.038563
3831.000000	0.039178
3830.000000	0.039838
3829.000000	0.040536
3828.000000	0.041170
3827.000000	0.041621
3826.000000	0.041882
3825.000000	0.042084
3824.000000	0.042342
3823.000000	0.042600
3822.000000	0.042717
3821.000000	0.042636
3820.000000	0.042498
3819.000000	0.042572
3818.000000	0.042921
3817.000000	0.043327
3816.000000	0.043724
3815.000000	0.044285
3814.000000	0.045128
3813.000000	0.046104
3812.000000	0.046913
3811.000000	0.047494
3810.000000	0.048019
3809.000000	0.048535
3808.000000	0.048912
3807.000000	0.049050
3806.000000	0.049041
3805.000000	0.049143
3804.000000	0.049455
3803.000000	0.049810
3802.000000	0.050102
3801.000000	0.050438
3800.000000	0.050983
3799.000000	0.051788
3798.000000	0.052665
3797.000000	0.053426
3796.000000	0.054157
3795.000000	0.054989
3794.000000	0.055889
3793.000000	0.056726
3792.000000	0.057440
3791.000000	0.058103
3790.000000	0.058785
3789.000000	0.059455
3788.000000	0.060064
3787.000000	0.060623
3786.000000	0.061152
3785.000000	0.061634
3784.000000	0.062064
3783.000000	0.062503
3782.000000	0.063009
3781.000000	0.063548
3780.000000	0.064046
3779.000000	0.064503
3778.000000	0.064995
3777.000000	0.065582
3776.000000	0.066225
3775.000000	0.066851
3774.000000	0.067469
3773.000000	0.068128
3772.000000	0.068797
3771.000000	0.069377
3770.000000	0.069854
3769.000000	0.070356
3768.000000	0.071007
3767.000000	0.071762
3766.000000	0.072475
3765.000000	0.073110
3764.000000	0.073779
3763.000000	0.074562
3762.000000	0.075371
3761.000000	0.076070
3760.000000	0.076668
3759.000000	0.077279
3758.000000	0.077906
3757.000000	0.078449
3756.000000	0.078869
3755.000000	0.079189
3754.000000	0.079386
3753.000000	0.079488
3752.000000	0.079687
3751.000000	0.080147
3750.000000	0.080752
3749.000000	0.081314
3748.000000	0.081958
3747.000000	0.082927
3746.000000	0.084155
3745.000000	0.085406
3744.000000	0.086609
3743.000000	0.087912
3742.000000	0.089485
3741.000000	0.091087
3740.000000	0.092394
3739.000000	0.093600
3738.000000	0.094945
3737.000000	0.096272
3736.000000	0.097322
3735.000000	0.098110
3734.000000	0.098897
3733.000000	0.099780
3732.000000	0.100623
3731.000000	0.101454
3730.000000	0.102539
3729.000000	0.103988
3728.000000	0.105617
3727.000000	0.107209
3726.000000	0.108733
3725.000000	0.110249
3724.000000	0.111719
3723.000000	0.113032
3722.000000	0.114200
3721.000000	0.115371
3720.000000	0.116639
3719.000000	0.117997
3718.000000	0.119392
3717.000000	0.120771
3716.000000	0.122120
3715.000000	0.123459
3714.000000	0.124852
3713.000000	0.126428
3712.000000	0.128285
3711.000000	0.130379
3710.000000	0.132588
3709.000000	0.134862
3708.000000	0.137237
3707.000000	0.139747
3706.000000	0.142389
3705.000000	0.145121
3704.000000	0.147877
3703.000000	0.150608
3702.000000	0.153270
3701.000000	0.155801
3700.000000	0.158151
3699.000000	0.160309
3698.000000	0.162247
3697.000000	0.163898
3696.000000	0.165260
3695.000000	0.166419
3694.000000	0.167422
3693.000000	0.168262
3692.000000	0.169042
3691.000000	0.170036
3690.000000	0.171520
3689.000000	0.173514
3688.000000	0.175813
3687.000000	0.178314
3686.000000	0.181088
3685.000000	0.184088
3684.000000	0.187139
3683.000000	0.190191
3682.000000	0.193274
3681.000000	0.196284
3680.000000	0.199036
3679.000000	0.201593
3678.000000	0.204391
3677.000000	0.207871
3676.000000	0.211963
3675.000000	0.216153
3674.000000	0.220199
3673.000000	0.224343
3672.000000	0.228741
3671.000000	0.233385
3670.000000	0.238333
3669.000000	0.243531
3668.000000	0.248776
3667.000000	0.253885
3666.000000	0.258816
3665.000000	0.263704
3664.000000	0.268685
3663.000000	0.273776
3662.000000	0.278886
3661.000000	0.283883
3660.000000	0.288727
3659.000000	0.293559
3658.000000	0.298612
3657.000000	0.303930
3656.000000	0.309277
3655.000000	0.314400
3654.000000	0.319278
3653.000000	0.324004
3652.000000	0.328727
3651.000000	0.333799
3650.000000	0.339569
3649.000000	0.345936
3648.000000	0.352345
3647.000000	0.358346
3646.000000	0.363984
3645.000000	0.369502
3644.000000	0.374962
3643.000000	0.380323
3642.000000	0.385642
3641.000000	0.391029
3640.000000	0.396516
3639.000000	0.402036
3638.000000	0.407553
3637.000000	0.413126
3636.000000	0.418796
3635.000000	0.424440
3634.000000	0.429837
3633.000000	0.434910
3632.000000	0.439894
3631.000000	0.445260
3630.000000	0.451436
3629.000000	0.458332
3628.000000	0.465343
3627.000000	0.472026
3626.000000	0.478269
3625.000000	0.483961
3624.000000	0.489114
3623.000000	0.493942
3622.000000	0.498645
3621.000000	0.503319
3620.000000	0.507965
3619.000000	0.512563
3618.000000	0.517118
3617.000000	0.521632
3616.000000	0.526088
3615.000000	0.530485
3614.000000	0.534885
3613.000000	0.539364
3612.000000	0.543977
3611.000000	0.548786
3610.000000	0.553834
3609.000000	0.559047
3608.000000	0.564278
3607.000000	0.569447
3606.000000	0.574538
3605.000000	0.579486
3604.000000	0.584227
3603.000000	0.588856
3602.000000	0.593568
3601.000000	0.598435
3600.000000	0.603368
3599.000000	0.608285
3598.000000	0.613203
3597.000000	0.618156
3596.000000	0.623172
3595.000000	0.628267
3594.000000	0.633400
3593.000000	0.638439
3592.000000	0.643269
3591.000000	0.647977
3590.000000	0.652856
3589.000000	0.658156
3588.000000	0.663860
3587.000000	0.669727
3586.000000	0.675465
3585.000000	0.680811
3584.000000	0.685617
3583.000000	0.690011
3582.000000	0.694315
3581.000000	0.698741
3580.000000	0.703293
3579.000000	0.707945
3578.000000	0.712715
3577.000000	0.717569
3576.000000	0.722421
3575.000000	0.727263
3574.000000	0.732155
3573.000000	0.737087
3572.000000	0.741976
3571.000000	0.746843
3570.000000	0.751834
3569.000000	0.757032
3568.000000	0.762354
3567.000000	0.767680
3566.000000	0.772949
3565.000000	0.778073
3564.000000	0.782919
3563.000000	0.787470
3562.000000	0.791876
3561.000000	0.796253
3560.000000	0.800610
3559.000000	0.804970
3558.000000	0.809391
3557.000000	0.813848
3556.000000	0.818271
3555.000000	0.822720
3554.000000	0.827331
3553.000000	0.832091
3552.000000	0.836832
3551.000000	0.841473
3550.000000	0.846109
3549.000000	0.850853
3548.000000	0.855742
3547.000000	0.860782
3546.000000	0.865893
3545.000000	0.870828
3544.000000	0.875318
3543.000000	0.879322
3542.000000	0.883018
3541.000000	0.886614
3540.000000	0.890298
3539.000000	0.894270
3538.000000	0.898600
3537.000000	0.903070
3536.000000	0.907351
3535.000000	0.911356
3534.000000	0.915239
3533.000000	0.919104
3532.000000	0.922938
3531.000000	0.926795
3530.000000	0.930809
3529.000000	0.934998
3528.000000	0.939273
3527.000000	0.943623
3526.000000	0.948100
3525.000000	0.952596
3524.000000	0.956865
3523.000000	0.960799
3522.000000	0.964496
3521.000000	0.968062
3520.000000	0.971554
3519.000000	0.975088
3518.000000	0.978796
3517.000000	0.982662
3516.000000	0.986549
3515.000000	0.990397
3514.000000	0.994211
3513.000000	0.997924
3512.000000	1.001462
3511.000000	1.004909
3510.000000	1.008424
3509.000000	1.012003
3508.000000	1.015541
3507.000000	1.019071
3506.000000	1.022740
3505.000000	1.026554
3504.000000	1.030358
3503.000000	1.034034
3502.000000	1.037547
3501.000000	1.040840
3500.000000	1.043890
3499.000000	1.046842
3498.000000	1.049856
3497.000000	1.052886
3496.000000	1.055779
3495.000000	1.058547
3494.000000	1.061314
3493.000000	1.064092
3492.000000	1.066820
3491.000000	1.069564
3490.000000	1.072440
3489.000000	1.075381
3488.000000	1.078208
3487.000000	1.080891
3486.000000	1.083516
3485.000000	1.086091
3484.000000	1.088601
3483.000000	1.091190
3482.000000	1.093998
3481.000000	1.096884
3480.000000	1.099563
3479.000000	1.101952
3478.000000	1.104185
3477.000000	1.106340
3476.000000	1.108427
3475.000000	1.110562
3474.000000	1.112903
3473.000000	1.115443
3472.000000	1.118089
3471.000000	1.120858
3470.000000	1.123775
3469.000000	1.126644
3468.000000	1.129170
3467.000000	1.131292
3466.000000	1.133178
3465.000000	1.134971
3464.000000	1.136776
3463.000000	1.138771
3462.000000	1.141060
3461.000000	1.143464
3460.000000	1.145695
3459.000000	1.147702
3458.000000	1.149640
3457.000000	1.151588
3456.000000	1.153538
3455.000000	1.155557
3454.000000	1.157718
3453.000000	1.159919
3452.000000	1.162017
3451.000000	1.164055
3450.000000	1.166160
3449.000000	1.168289
3448.000000	1.170308
3447.000000	1.172231
3446.000000	1.174138
3445.000000	1.175965
3444.000000	1.177624
3443.000000	1.179227
3442.000000	1.180965
3441.000000	1.182848
3440.000000	1.184790
3439.000000	1.186827
3438.000000	1.188992
3437.000000	1.191077
3436.000000	1.192782
3435.000000	1.194053
3434.000000	1.195058
3433.000000	1.195935
3432.000000	1.196773
3431.000000	1.197701
3430.000000	1.198758
3429.000000	1.199759
3428.000000	1.200518
3427.000000	1.201099
3426.000000	1.201664
3425.000000	1.202222
3424.000000	1.202737
3423.000000	1.203312
3422.000000	1.204029
3421.000000	1.204733
3420.000000	1.205229
3419.000000	1.205570
3418.000000	1.205932
3417.000000	1.206347
3416.000000	1.206781
3415.000000	1.207299
3414.000000	1.207923
3413.000000	1.208460
3412.000000	1.208724
3411.000000	1.208799
3410.000000	1.208856
3409.000000	1.208848
3408.000000	1.208656
3407.000000	1.208380
3406.000000	1.208262
3405.000000	1.208417
3404.000000	1.208839
3403.000000	1.209517
3402.000000	1.210297
3401.000000	1.210792
3400.000000	1.210689
3399.000000	1.210091
3398.000000	1.209348
3397.000000	1.208713
3396.000000	1.208317
3395.000000	1.208300
3394.000000	1.208670
3393.000000	1.209140
3392.000000	1.209343
3391.000000	1.209152
3390.000000	1.208656
3389.000000	1.207969
3388.000000	1.207246
3387.000000	1.206724
3386.000000	1.206503
3385.000000	1.206419
3384.000000	1.206295
3383.000000	1.206190
3382.000000	1.206213
3381.000000	1.206262
3380.000000	1.206179
3379.000000	1.206004
3378.000000	1.205860
3377.000000	1.205711
3376.000000	1.205462
3375.000000	1.205179
3374.000000	1.205018
3373.000000	1.205026
3372.000000	1.205157
3371.000000	1.205369
3370.000000	1.205552
3369.000000	1.205484
3368.000000	1.205058
3367.000000	1.204410
3366.000000	1.203709
3365.000000	1.202954
3364.000000	1.202137
3363.000000	1.201403
3362.000000	1.200858
3361.000000	1.200377
3360.000000	1.199788
3359.000000	1.199116
3358.000000	1.198462
3357.000000	1.197799
3356.000000	1.197067
3355.000000	1.196341
3354.000000	1.195714
3353.000000	1.195123
3352.000000	1.194449
3351.000000	1.193655
3350.000000	1.192700
3349.000000	1.191478
3348.000000	1.190013
3347.000000	1.188552
3346.000000	1.187301
3345.000000	1.186184
3344.000000	1.185011
3343.000000	1.183738
3342.000000	1.182407
3341.000000	1.180980
3340.000000	1.179402
3339.000000	1.177709
3338.000000	1.175928
3337.000000	1.174004
3336.000000	1.171934
3335.000000	1.169851
3334.000000	1.167829
3333.000000	1.165768
3332.000000	1.163580
3331.000000	1.161356
3330.000000	1.159209
3329.000000	1.157103
3328.000000	1.154969
3327.000000	1.152832
3326.000000	1.150696
3325.000000	1.148456
3324.000000	1.146056
3323.000000	1.143606
3322.000000	1.141220
3321.000000	1.138859
3320.000000	1.136476
3319.000000	1.134137
3318.000000	1.131897
3317.000000	1.129672
3316.000000	1.127374
3315.000000	1.125049
3314.000000	1.122776
3313.000000	1.120533
3312.000000	1.118297
3311.000000	1.116130
3310.000000	1.114056
3309.000000	1.111975
3308.000000	1.109805
3307.000000	1.107597
3306.000000	1.105398
3305.000000	1.103146
3304.000000	1.100789
3303.000000	1.098400
3302.000000	1.096056
3301.000000	1.093730
3300.000000	1.091397
3299.000000	1.089127
3298.000000	1.086963
3297.000000	1.084829
3296.000000	1.082636
3295.000000	1.080405
3294.000000	1.078165
3293.000000	1.075877
3292.000000	1.073520
3291.000000	1.071149
3290.000000	1.068784
3289.000000	1.066351
3288.000000	1.063827
3287.000000	1.061318
3286.000000	1.058904
3285.000000	1.056521
3284.000000	1.054075
3283.000000	1.051573
3282.000000	1.049054
3281.000000	1.046493
3280.000000	1.043882
3279.000000	1.041280
3278.000000	1.038715
3277.000000	1.036123
3276.000000	1.033458
3275.000000	1.030770
3274.000000	1.028096
3273.000000	1.025383
3272.000000	1.022589
3271.000000	1.019755
3270.000000	1.016906
3269.000000	1.014003
3268.000000	1.011030
3267.000000	1.008052
3266.000000	1.005109
3265.000000	1.002153
3264.000000	0.999157
3263.000000	0.996160
3262.000000	0.993179
3261.000000	0.990159
3260.000000	0.987082
3259.000000	0.984017
3258.000000	0.981000
3257.000000	0.977963
3256.000000	0.974850
3255.000000	0.971702
3254.000000	0.968565
3253.000000	0.965406
3252.000000	0.962197
3251.000000	0.958984
3250.000000	0.955811
3249.000000	0.952649
3248.000000	0.949461
3247.000000	0.946254
3246.000000	0.943035
3245.000000	0.939764
3244.000000	0.936434
3243.000000	0.933098
3242.000000	0.929786
3241.000000	0.926463
3240.000000	0.923110
3239.000000	0.919755
3238.000000	0.916410
3237.000000	0.913035
3236.000000	0.909622
3235.000000	0.906226
3234.000000	0.902870
3233.000000	0.899498
3232.000000	0.896060
3231.000000	0.892582
3230.000000	0.889093
3229.000000	0.885581
3228.000000	0.882035
3227.000000	0.878491
3226.000000	0.874964
3225.000000	0.871414
3224.000000	0.867816
3223.000000	0.864209
3222.000000	0.860626
3221.000000	0.857044
3220.000000	0.853440
3219.000000	0.849827
3218.000000	0.846213
3217.000000	0.842568
3216.000000	0.838879
3215.000000	0.835172
3214.000000	0.831469
3213.000000	0.827754
3212.000000	0.824020
3211.000000	0.820290
3210.000000	0.816570
3209.000000	0.812832
3208.000000	0.809059
3207.000000	0.805276
3206.000000	0.801492
3205.000000	0.797687
3204.000000	0.793857
3203.000000	0.790033
3202.000000	0.786228
3201.000000	0.782417
3200.000000	0.778588
3199.000000	0.774763
3198.000000	0.770945
3197.000000	0.767104
3196.000000	0.763232
3195.000000	0.759361
3194.000000	0.755518
3193.000000	0.751686
3192.000000	0.747845
3191.000000	0.744004
3190.000000	0.740172
3189.000000	0.736338
3188.000000	0.732494
3187.000000	0.728658
3186.000000	0.724838
3185.000000	0.721020
3184.000000	0.717197
3183.000000	0.713386
3182.000000	0.709591
3181.000000	0.705801
3180.000000	0.702008
3179.000000	0.698221
3178.000000	0.694439
3177.000000	0.690648
3176.000000	0.686850
3175.000000	0.683068
3174.000000	0.679309
3173.000000	0.675561
3172.000000	0.671818
3171.000000	0.668093
3170.000000	0.664384
3169.000000	0.660673
3168.000000	0.656960
3167.000000	0.653262
3166.000000	0.649583
3165.000000	0.645905
3164.000000	0.642225
3163.000000	0.638563
3162.000000	0.634930
3161.000000	0.631312
3160.000000	0.627703
3159.000000	0.624116
3158.000000	0.620554
3157.000000	0.617005
3156.000000	0.613465
3155.000000	0.609947
3154.000000	0.606453
3153.000000	0.602957
3152.000000	0.599442
3151.000000	0.595915
3150.000000	0.592391
3149.000000	0.588879
3148.000000	0.585384
3147.000000	0.581919
3146.000000	0.578482
3145.000000	0.575061
3144.000000	0.571655
3143.000000	0.568277
3142.000000	0.564935
3141.000000	0.561617
3140.000000	0.558307
3139.000000	0.554993
3138.000000	0.551671
3137.000000	0.548346
3136.000000	0.545034
3135.000000	0.541754
3134.000000	0.538508
3133.000000	0.535287
3132.000000	0.532091
3131.000000	0.528929
3130.000000	0.525797
3129.000000	0.522679
3128.000000	0.519566
3127.000000	0.516464
3126.000000	0.513383
3125.000000	0.510328
3124.000000	0.507309
3123.000000	0.504339
3122.000000	0.501411
3121.000000	0.498504
3120.000000	0.495602
3119.000000	0.492706
3118.000000	0.489818
3117.000000	0.486938
3116.000000	0.484065
3115.000000	0.481206
3114.000000	0.478370
3113.000000	0.475564
3112.000000	0.472800
3111.000000	0.470089
3110.000000	0.467426
3109.000000	0.464789
3108.000000	0.462157
3107.000000	0.459532
3106.000000	0.456930
3105.000000	0.454369
3104.000000	0.451854
3103.000000	0.449378
3102.000000	0.446925
3101.000000	0.444478
3100.000000	0.442040
3099.000000	0.439628
3098.000000	0.437254
3097.000000	0.434914
3096.000000	0.432598
3095.000000	0.430301
3094.000000	0.428025
3093.000000	0.425779
3092.000000	0.423570
3091.000000	0.421399
3090.000000	0.419254
3089.000000	0.417123
3088.000000	0.415004
3087.000000	0.412908
3086.000000	0.410839
3085.000000	0.408792
3084.000000	0.406757
3083.000000	0.404730
3082.000000	0.402716
3081.000000	0.400720
3080.000000	0.398738
3079.000000	0.396767
3078.000000	0.394799
3077.000000	0.392834
3076.000000	0.390872
3075.000000	0.388922
3074.000000	0.386992
3073.000000	0.385083
3072.000000	0.383191
3071.000000	0.381307
3070.000000	0.379426
3069.000000	0.377542
3068.000000	0.375641
3067.000000	0.373707
3066.000000	0.371729
3065.000000	0.369706
3064.000000	0.367649
3063.000000	0.365575
3062.000000	0.363492
3061.000000	0.361402
3060.000000	0.359304
3059.000000	0.357197
3058.000000	0.355080
3057.000000	0.352954
3056.000000	0.350819
3055.000000	0.348679
3054.000000	0.346545
3053.000000	0.344433
3052.000000	0.342349
3051.000000	0.340287
3050.000000	0.338234
3049.000000	0.336187
3048.000000	0.334151
3047.000000	0.332136
3046.000000	0.330150
3045.000000	0.328196
3044.000000	0.326272
3043.000000	0.324374
3042.000000	0.322500
3041.000000	0.320647
3040.000000	0.318811
3039.000000	0.316994
3038.000000	0.315203
3037.000000	0.313449
3036.000000	0.311734
3035.000000	0.310055
3034.000000	0.308403
3033.000000	0.306771
3032.000000	0.305157
3031.000000	0.303558
3030.000000	0.301982
3029.000000	0.300440
3028.000000	0.298934
3027.000000	0.297461
3026.000000	0.296022
3025.000000	0.294621
3024.000000	0.293258
3023.000000	0.291934
3022.000000	0.290654
3021.000000	0.289428
3020.000000	0.288265
3019.000000	0.287161
3018.000000	0.286112
3017.000000	0.285120
3016.000000	0.284186
3015.000000	0.283307
3014.000000	0.282479
3013.000000	0.281699
3012.000000	0.280964
3011.000000	0.280270
3010.000000	0.279621
3009.000000	0.279028
3008.000000	0.278496
3007.000000	0.278024
3006.000000	0.277615
3005.000000	0.277276
3004.000000	0.277011
3003.000000	0.276821
3002.000000	0.276710
3001.000000	0.276689
3000.000000	0.276769
2999.000000	0.276960
2998.000000	0.277273
2997.000000	0.277720
2996.000000	0.278309
2995.000000	0.279043
2994.000000	0.279931
2993.000000	0.280981
2992.000000	0.282196
2991.000000	0.283573
2990.000000	0.285110
2989.000000	0.286811
2988.000000	0.288672
2987.000000	0.290683
2986.000000	0.292835
2985.000000	0.295121
2984.000000	0.297533
2983.000000	0.300059
2982.000000	0.302696
2981.000000	0.305444
2980.000000	0.308297
2979.000000	0.311249
2978.000000	0.314294
2977.000000	0.317433
2976.000000	0.320662
2975.000000	0.323976
2974.000000	0.327363
2973.000000	0.330817
2972.000000	0.334321
2971.000000	0.337857
2970.000000	0.341410
2969.000000	0.344968
2968.000000	0.348525
2967.000000	0.352067
2966.000000	0.355587
2965.000000	0.359082
2964.000000	0.362558
2963.000000	0.366025
2962.000000	0.369490
2961.000000	0.372955
2960.000000	0.376422
2959.000000	0.379895
2958.000000	0.383390
2957.000000	0.386919
2956.000000	0.390498
2955.000000	0.394139
2954.000000	0.397859
2953.000000	0.401677
2952.000000	0.405615
2951.000000	0.409692
2950.000000	0.413918
2949.000000	0.418288
2948.000000	0.422787
2947.000000	0.427387
2946.000000	0.432048
2945.000000	0.436723
2944.000000	0.441358
2943.000000	0.445907
2942.000000	0.450327
2941.000000	0.454581
2940.000000	0.458641
2939.000000	0.462484
2938.000000	0.466085
2937.000000	0.469429
2936.000000	0.472506
2935.000000	0.475306
2934.000000	0.477817
2933.000000	0.480027
2932.000000	0.481933
2931.000000	0.483531
2930.000000	0.484809
2929.000000	0.485746
2928.000000	0.486328
2927.000000	0.486551
2926.000000	0.486400
2925.000000	0.485855
2924.000000	0.484903
2923.000000	0.483527
2922.000000	0.481699
2921.000000	0.479362
2920.000000	0.476439
2919.000000	0.472829
2918.000000	0.468431
2917.000000	0.463212
2916.000000	0.457277
2915.000000	0.450869
2914.000000	0.444307
2913.000000	0.437896
2912.000000	0.431865
2911.000000	0.426340
2910.000000	0.421351
2909.000000	0.416865
2908.000000	0.412820
2907.000000	0.409144
2906.000000	0.405775
2905.000000	0.402659
2904.000000	0.399749
2903.000000	0.397003
2902.000000	0.394382
2901.000000	0.391852
2900.000000	0.389387
2899.000000	0.386962
2898.000000	0.384558
2897.000000	0.382169
2896.000000	0.379794
2895.000000	0.377427
2894.000000	0.375061
2893.000000	0.372688
2892.000000	0.370298
2891.000000	0.367880
2890.000000	0.365422
2889.000000	0.362918
2888.000000	0.360369
2887.000000	0.357779
2886.000000	0.355153
2885.000000	0.352496
2884.000000	0.349811
2883.000000	0.347096
2882.000000	0.344348
2881.000000	0.341567
2880.000000	0.338756
2879.000000	0.335916
2878.000000	0.333048
2877.000000	0.330151
2876.000000	0.327218
2875.000000	0.324240
2874.000000	0.321210
2873.000000	0.318125
2872.000000	0.314982
2871.000000	0.311784
2870.000000	0.308558
2869.000000	0.305362
2868.000000	0.302262
2867.000000	0.299322
2866.000000	0.296600
2865.000000	0.294152
2864.000000	0.292018
2863.000000	0.290224
2862.000000	0.288785
2861.000000	0.287701
2860.000000	0.286953
2859.000000	0.286490
2858.000000	0.286249
2857.000000	0.286152
2856.000000	0.286103
2855.000000	0.285987
2854.000000	0.285651
2853.000000	0.284885
2852.000000	0.283392
2851.000000	0.280844
2850.000000	0.277022
2849.000000	0.271938
2848.000000	0.265863
2847.000000	0.259240
2846.000000	0.252528
2845.000000	0.246081
2844.000000	0.240090
2843.000000	0.234599
2842.000000	0.229578
2841.000000	0.224972
2840.000000	0.220715
2839.000000	0.216744
2838.000000	0.213007
2837.000000	0.209466
2836.000000	0.206086
2835.000000	0.202835
2834.000000	0.199705
2833.000000	0.196701
2832.000000	0.193822
2831.000000	0.191059
2830.000000	0.188406
2829.000000	0.185863
2828.000000	0.183424
2827.000000	0.181074
2826.000000	0.178808
2825.000000	0.176629
2824.000000	0.174531
2823.000000	0.172502
2822.000000	0.170539
2821.000000	0.168650
2820.000000	0.166833
2819.000000	0.165073
2818.000000	0.163363
2817.000000	0.161707
2816.000000	0.160103
2815.000000	0.158541
2814.000000	0.157020
2813.000000	0.155545
2812.000000	0.154113
2811.000000	0.152716
2810.000000	0.151356
2809.000000	0.150042
2808.000000	0.148770
2807.000000	0.147526
2806.000000	0.146305
2805.000000	0.145115
2804.000000	0.143957
2803.000000	0.142819
2802.000000	0.141702
2801.000000	0.140616
2800.000000	0.139563
2799.000000	0.138533
2798.000000	0.137525
2797.000000	0.136544
2796.000000	0.135588
2795.000000	0.134646
2794.000000	0.133721
2793.000000	0.132825
2792.000000	0.131959
2791.000000	0.131115
2790.000000	0.130296
2789.000000	0.129510
2788.000000	0.128753
2787.000000	0.128009
2786.000000	0.127274
2785.000000	0.126560
2784.000000	0.125872
2783.000000	0.125205
2782.000000	0.124562
2781.000000	0.123948
2780.000000	0.123361
2779.000000	0.122784
2778.000000	0.122218
2777.000000	0.121675
2776.000000	0.121163
2775.000000	0.120677
2774.000000	0.120221
2773.000000	0.119798
2772.000000	0.119396
2771.000000	0.118989
2770.000000	0.118558
2769.000000	0.118100
2768.000000	0.117604
2767.000000	0.117060
2766.000000	0.116478
2765.000000	0.115886
2764.000000	0.115301
2763.000000	0.114723
2762.000000	0.114157
2761.000000	0.113613
2760.000000	0.113091
2759.000000	0.112580
2758.000000	0.112082
2757.000000	0.111609
2756.000000	0.111163
2755.000000	0.110733
2754.000000	0.110314
2753.000000	0.109907
2752.000000	0.109507
2751.000000	0.109104
2750.000000	0.108702
2749.000000	0.108315
2748.000000	0.107946
2747.000000	0.107580
2746.000000	0.107217
2745.000000	0.106862
2744.000000	0.106514
2743.000000	0.106157
2742.000000	0.105792
2741.000000	0.105429
2740.000000	0.105070
2739.000000	0.104704
2738.000000	0.104334
2737.000000	0.103970
2736.000000	0.103608
2735.000000	0.103232
2734.000000	0.102844
2733.000000	0.102455
2732.000000	0.102070
2731.000000	0.101679
2730.000000	0.101282
2729.000000	0.100885
2728.000000	0.100486
2727.000000	0.100075
2726.000000	0.099652
2725.000000	0.099226
2724.000000	0.098797
2723.000000	0.098354
2722.000000	0.097902
2721.000000	0.097454
2720.000000	0.097008
2719.000000	0.096551
2718.000000	0.096079
2717.000000	0.095601
2716.000000	0.095116
2715.000000	0.094617
2714.000000	0.094108
2713.000000	0.093605
2712.000000	0.093107
2711.000000	0.092599
2710.000000	0.092081
2709.000000	0.091563
2708.000000	0.091047
2707.000000	0.090523
2706.000000	0.089995
2705.000000	0.089477
2704.000000	0.088971
2703.000000	0.088465
2702.000000	0.087961
2701.000000	0.087469
2700.000000	0.086989
2699.000000	0.086508
2698.000000	0.086026
2697.000000	0.085557
2696.000000	0.085100
2695.000000	0.084645
2694.000000	0.084190
2693.000000	0.083745
2692.000000	0.083308
2691.000000	0.082868
2690.000000	0.082427
2689.000000	0.081999
2688.000000	0.081586
2687.000000	0.081172
2686.000000	0.080757
2685.000000	0.080350
2684.000000	0.079948
2683.000000	0.079539
2682.000000	0.079125
2681.000000	0.078724
2680.000000	0.078336
2679.000000	0.077947
2678.000000	0.077553
2677.000000	0.077163
2676.000000	0.076774
2675.000000	0.076375
2674.000000	0.075968
2673.000000	0.075570
2672.000000	0.075183
2671.000000	0.074794
2670.000000	0.074404
2669.000000	0.074021
2668.000000	0.073641
2667.000000	0.073248
2666.000000	0.072845
2665.000000	0.072447
2664.000000	0.072060
2663.000000	0.071674
2662.000000	0.071290
2661.000000	0.070920
2660.000000	0.070560
2659.000000	0.070190
2658.000000	0.069807
2657.000000	0.069421
2656.000000	0.069034
2655.000000	0.068640
2654.000000	0.068249
2653.000000	0.067878
2652.000000	0.067520
2651.000000	0.067153
2650.000000	0.066768
2649.000000	0.066377
2648.000000	0.065980
2647.000000	0.065570
2646.000000	0.065152
2645.000000	0.064748
2644.000000	0.064359
2643.000000	0.063969
2642.000000	0.063570
2641.000000	0.063167
2640.000000	0.062752
2639.000000	0.062317
2638.000000	0.061872
2637.000000	0.061439
2636.000000	0.061019
2635.000000	0.060598
2634.000000	0.060171
2633.000000	0.059749
2632.000000	0.059328
2631.000000	0.058892
2630.000000	0.058443
2629.000000	0.058003
2628.000000	0.057578
2627.000000	0.057158
2626.000000	0.056742
2625.000000	0.056343
2624.000000	0.055953
2623.000000	0.055557
2622.000000	0.055152
2621.000000	0.054756
2620.000000	0.054370
2619.000000	0.053986
2618.000000	0.053608
2617.000000	0.053250
2616.000000	0.052907
2615.000000	0.052559
2614.000000	0.052203
2613.000000	0.051851
2612.000000	0.051507
2611.000000	0.051161
2610.000000	0.050817
2609.000000	0.050491
2608.000000	0.050181
2607.000000	0.049870
2606.000000	0.049558
2605.000000	0.049253
2604.000000	0.048953
2603.000000	0.048646
2602.000000	0.048337
2601.000000	0.048043
2600.000000	0.047762
2599.000000	0.047479
2598.000000	0.047192
2597.000000	0.046917
2596.000000	0.046653
2595.000000	0.046384
2594.000000	0.046110
2593.000000	0.045847
2592.000000	0.045591
2591.000000	0.045328
2590.000000	0.045062
2589.000000	0.044807
2588.000000	0.044562
2587.000000	0.044311
2586.000000	0.044054
2585.000000	0.043808
2584.000000	0.043569
2583.000000	0.043320
2582.000000	0.043060
2581.000000	0.042806
2580.000000	0.042559
2579.000000	0.042310
2578.000000	0.042061
2577.000000	0.041826
2576.000000	0.041601
2575.000000	0.041366
2574.000000	0.041120
2573.000000	0.040875
2572.000000	0.040631
2571.000000	0.040377
2570.000000	0.040119
2569.000000	0.039876
2568.000000	0.039645
2567.000000	0.039408
2566.000000	0.039162
2565.000000	0.038920
2564.000000	0.038679
2563.000000	0.038424
2562.000000	0.038162
2561.000000	0.037913
2560.000000	0.037678
2559.000000	0.037442
2558.000000	0.037204
2557.000000	0.036972
2556.000000	0.036738
2555.000000	0.036489
2554.000000	0.036230
2553.000000	0.035985
2552.000000	0.035757
2551.000000	0.035528
2550.000000	0.035299
2549.000000	0.035083
2548.000000	0.034873
2547.000000	0.034648
2546.000000	0.034407
2545.000000	0.034171
2544.000000	0.033946
2543.000000	0.033719
2542.000000	0.033492
2541.000000	0.033275
2540.000000	0.033062
2539.000000	0.032835
2538.000000	0.032596
2537.000000	0.032362
2536.000000	0.032133
2535.000000	0.031896
2534.000000	0.031657
2533.000000	0.031434
2532.000000	0.031221
2531.000000	0.030996
2530.000000	0.030759
2529.000000	0.030527
2528.000000	0.030305
2527.000000	0.030079
2526.000000	0.029851
2525.000000	0.029638
2524.000000	0.029437
2523.000000	0.029232
2522.000000	0.029022
2521.000000	0.028823
2520.000000	0.028631
2519.000000	0.028435
2518.000000	0.028238
2517.000000	0.028060
2516.000000	0.027894
2515.000000	0.027721
2514.000000	0.027540
2513.000000	0.027371
2512.000000	0.027212
2511.000000	0.027044
2510.000000	0.026870
2509.000000	0.026707
2508.000000	0.026558
2507.000000	0.026406
2506.000000	0.026252
2505.000000	0.026106
2504.000000	0.025960
2503.000000	0.025794
2502.000000	0.025614
2501.000000	0.025437
2500.000000	0.025263
2499.000000	0.025070
2498.000000	0.024861
2497.000000	0.024654
2496.000000	0.024449
2495.000000	0.024226
2494.000000	0.023989
2493.000000	0.023758
2492.000000	0.023536
2491.000000	0.023308
2490.000000	0.023080
2489.000000	0.022868
2488.000000	0.022669
2487.000000	0.022465
2486.000000	0.022257
2485.000000	0.022059
2484.000000	0.021865
2483.000000	0.021657
2482.000000	0.021439
2481.000000	0.021235
2480.000000	0.021043
2479.000000	0.020847
2478.000000	0.020645
2477.000000	0.020452
2476.000000	0.020266
2475.000000	0.020067
2474.000000	0.019856
2473.000000	0.019654
2472.000000	0.019461
2471.000000	0.019262
2470.000000	0.019061
2469.000000	0.018874
2468.000000	0.018699
2467.000000	0.018516
2466.000000	0.018326
2465.000000	0.018146
2464.000000	0.017971
2463.000000	0.017784
2462.000000	0.017587
2461.000000	0.017401
2460.000000	0.017226
2459.000000	0.017045
2458.000000	0.016858
2457.000000	0.016682
2456.000000	0.016511
2455.000000	0.016325
2454.000000	0.016127
2453.000000	0.015936
2452.000000	0.015755
2451.000000	0.015566
2450.000000	0.015375
2449.000000	0.015200
2448.000000	0.015032
2447.000000	0.014849
2446.000000	0.014652
2445.000000	0.014463
2444.000000	0.014280
2443.000000	0.014089
2442.000000	0.013894
2441.000000	0.013714
2440.000000	0.013545
2439.000000	0.013365
2438.000000	0.013172
2437.000000	0.012986
2436.000000	0.012803
2435.000000	0.012605
2434.000000	0.012398
2433.000000	0.012207
2432.000000	0.012029
2431.000000	0.011844
2430.000000	0.011650
2429.000000	0.011465
2428.000000	0.011286
2427.000000	0.011093
2426.000000	0.010890
2425.000000	0.010699
2424.000000	0.010523
2423.000000	0.010343
2422.000000	0.010159
2421.000000	0.009987
2420.000000	0.009821
2419.000000	0.009640
2418.000000	0.009453
2417.000000	0.009283
2416.000000	0.009131
2415.000000	0.008974
2414.000000	0.008814
2413.000000	0.008669
2412.000000	0.008534
2411.000000	0.008386
2410.000000	0.008228
2409.000000	0.008083
2408.000000	0.007953
2407.000000	0.007823
2406.000000	0.007695
2405.000000	0.007583
2404.000000	0.007475
2403.000000	0.007347
2402.000000	0.007199
2401.000000	0.007053
2400.000000	0.006911
2399.000000	0.006757
2398.000000	0.006601
2397.000000	0.006462
2396.000000	0.006332
2395.000000	0.006183
2394.000000	0.006013
2393.000000	0.005848
2392.000000	0.005691
2391.000000	0.005531
2390.000000	0.005379
2389.000000	0.005254
2388.000000	0.005146
2387.000000	0.005025
2386.000000	0.004885
2385.000000	0.004746
2384.000000	0.004605
2383.000000	0.004448
2382.000000	0.004290
2381.000000	0.004162
2380.000000	0.004060
2379.000000	0.003952
2378.000000	0.003831
2377.000000	0.003712
2376.000000	0.003589
2375.000000	0.003444
2374.000000	0.003288
2373.000000	0.003162
2372.000000	0.003069
2371.000000	0.002974
2370.000000	0.002874
2369.000000	0.002793
2368.000000	0.002721
2367.000000	0.002615
2366.000000	0.002485
2365.000000	0.002385
2364.000000	0.002305
2363.000000	0.002203
2362.000000	0.002107
2361.000000	0.002036
2360.000000	0.001975
2359.000000	0.001883
2358.000000	0.001758
2357.000000	0.001673
2356.000000	0.001611
2355.000000	0.001541
2354.000000	0.001459
2353.000000	0.001348
2352.000000	0.001126
2351.000000	0.000695
2350.000000	0.000265
2349.000000	0.000143
2348.000000	0.000437
2347.000000	0.000947
2346.000000	0.001291
2345.000000	0.001341
2344.000000	0.001178
2343.000000	0.001019
2342.000000	0.000965
2341.000000	0.000958
2340.000000	0.000971
2339.000000	0.000963
2338.000000	0.000966
2337.000000	0.001000
2336.000000	0.001054
2335.000000	0.001093
2334.000000	0.001118
2333.000000	0.001155
2332.000000	0.001204
2331.000000	0.001193
2330.000000	0.001158
2329.000000	0.001149
2328.000000	0.001180
2327.000000	0.001252
2326.000000	0.001312
2325.000000	0.001404
2324.000000	0.001453
2323.000000	0.001451
2322.000000	0.001416
2321.000000	0.001409
2320.000000	0.001452
2319.000000	0.001493
2318.000000	0.001545
2317.000000	0.001615
2316.000000	0.001707
2315.000000	0.001771
2314.000000	0.001800
2313.000000	0.001828
2312.000000	0.001869
2311.000000	0.001916
2310.000000	0.001965
2309.000000	0.002042
2308.000000	0.002126
2307.000000	0.002197
2306.000000	0.002247
2305.000000	0.002314
2304.000000	0.002394
2303.000000	0.002471
2302.000000	0.002542
2301.000000	0.002630
2300.000000	0.002722
2299.000000	0.002790
2298.000000	0.002832
2297.000000	0.002881
2296.000000	0.002937
2295.000000	0.002984
2294.000000	0.003021
2293.000000	0.003078
2292.000000	0.003146
2291.000000	0.003200
2290.000000	0.003232
2289.000000	0.003266
2288.000000	0.003301
2287.000000	0.003322
2286.000000	0.003333
2285.000000	0.003364
2284.000000	0.003414
2283.000000	0.003454
2282.000000	0.003482
2281.000000	0.003517
2280.000000	0.003556
2279.000000	0.003576
2278.000000	0.003584
2277.000000	0.003611
2276.000000	0.003661
2275.000000	0.003707
2274.000000	0.003745
2273.000000	0.003794
2272.000000	0.003852
2271.000000	0.003895
2270.000000	0.003930
2269.000000	0.003985
2268.000000	0.004058
2267.000000	0.004119
2266.000000	0.004171
2265.000000	0.004239
2264.000000	0.004317
2263.000000	0.004377
2262.000000	0.004423
2261.000000	0.004486
2260.000000	0.004570
2259.000000	0.004647
2258.000000	0.004717
2257.000000	0.004801
2256.000000	0.004893
2255.000000	0.004967
2254.000000	0.005025
2253.000000	0.005096
2252.000000	0.005182
2251.000000	0.005260
2250.000000	0.005332
2249.000000	0.005422
2248.000000	0.005524
2247.000000	0.005607
2246.000000	0.005674
2245.000000	0.005753
2244.000000	0.005847
2243.000000	0.005930
2242.000000	0.006006
2241.000000	0.006101
2240.000000	0.006210
2239.000000	0.006303
2238.000000	0.006379
2237.000000	0.006463
2236.000000	0.006558
2235.000000	0.006642
2234.000000	0.006719
2233.000000	0.006815
2232.000000	0.006919
2231.000000	0.006997
2230.000000	0.007048
2229.000000	0.007101
2228.000000	0.007158
2227.000000	0.007195
2226.000000	0.007213
2225.000000	0.007244
2224.000000	0.007286
2223.000000	0.007313
2222.000000	0.007327
2221.000000	0.007357
2220.000000	0.007404
2219.000000	0.007443
2218.000000	0.007480
2217.000000	0.007538
2216.000000	0.007612
2215.000000	0.007669
2214.000000	0.007712
2213.000000	0.007772
2212.000000	0.007849
2211.000000	0.007918
2210.000000	0.007982
2209.000000	0.008069
2208.000000	0.008175
2207.000000	0.008265
2206.000000	0.008333
2205.000000	0.008407
2204.000000	0.008489
2203.000000	0.008562
2202.000000	0.008634
2201.000000	0.008735
2200.000000	0.008859
2199.000000	0.008970
2198.000000	0.009064
2197.000000	0.009167
2196.000000	0.009275
2195.000000	0.009363
2194.000000	0.009443
2193.000000	0.009552
2192.000000	0.009695
2191.000000	0.009834
2190.000000	0.009964
2189.000000	0.010102
2188.000000	0.010244
2187.000000	0.010361
2186.000000	0.010461
2185.000000	0.010584
2184.000000	0.010735
2183.000000	0.010888
2182.000000	0.011039
2181.000000	0.011206
2180.000000	0.011377
2179.000000	0.011516
2178.000000	0.011633
2177.000000	0.011768
2176.000000	0.011928
2175.000000	0.012089
2174.000000	0.012247
2173.000000	0.012423
2172.000000	0.012607
2171.000000	0.012762
2170.000000	0.012887
2169.000000	0.013016
2168.000000	0.013155
2167.000000	0.013282
2166.000000	0.013408
2165.000000	0.013560
2164.000000	0.013727
2163.000000	0.013862
2162.000000	0.013959
2161.000000	0.014052
2160.000000	0.014149
2159.000000	0.014229
2158.000000	0.014301
2157.000000	0.014400
2156.000000	0.014517
2155.000000	0.014613
2154.000000	0.014678
2153.000000	0.014742
2152.000000	0.014804
2151.000000	0.014842
2150.000000	0.014868
2149.000000	0.014921
2148.000000	0.015001
2147.000000	0.015066
2146.000000	0.015109
2145.000000	0.015155
2144.000000	0.015201
2143.000000	0.015220
2142.000000	0.015225
2141.000000	0.015257
2140.000000	0.015318
2139.000000	0.015371
2138.000000	0.015408
2137.000000	0.015450
2136.000000	0.015488
2135.000000	0.015491
2134.000000	0.015471
2133.000000	0.015475
2132.000000	0.015504
2131.000000	0.015524
2130.000000	0.015531
2129.000000	0.015552
2128.000000	0.015581
2127.000000	0.015581
2126.000000	0.015558
2125.000000	0.015554
2124.000000	0.015574
2123.000000	0.015585
2122.000000	0.015584
2121.000000	0.015600
2120.000000	0.015625
2119.000000	0.015623
2118.000000	0.015601
2117.000000	0.015600
2116.000000	0.015617
2115.000000	0.015614
2114.000000	0.015589
2113.000000	0.015581
2112.000000	0.015592
2111.000000	0.015583
2110.000000	0.015550
2109.000000	0.015531
2108.000000	0.015529
2107.000000	0.015516
2106.000000	0.015493
2105.000000	0.015493
2104.000000	0.015509
2103.000000	0.015504
2102.000000	0.015475
2101.000000	0.015460
2100.000000	0.015459
2099.000000	0.015439
2098.000000	0.015408
2097.000000	0.015402
2096.000000	0.015416
2095.000000	0.015408
2094.000000	0.015377
2093.000000	0.015364
2092.000000	0.015377
2091.000000	0.015379
2090.000000	0.015362
2089.000000	0.015356
2088.000000	0.015358
2087.000000	0.015337
2086.000000	0.015302
2085.000000	0.015289
2084.000000	0.015295
2083.000000	0.015286
2082.000000	0.015264
2081.000000	0.015271
2080.000000	0.015304
2079.000000	0.015321
2078.000000	0.015317
2077.000000	0.015324
2076.000000	0.015342
2075.000000	0.015338
2074.000000	0.015319
2073.000000	0.015326
2072.000000	0.015357
2071.000000	0.015371
2070.000000	0.015371
2069.000000	0.015399
2068.000000	0.015455
2067.000000	0.015500
2066.000000	0.015520
2065.000000	0.015531
2064.000000	0.015524
2063.000000	0.015475
2062.000000	0.015416
2061.000000	0.015406
2060.000000	0.015430
2059.000000	0.015426
2058.000000	0.015383
2057.000000	0.015352
2056.000000	0.015343
2055.000000	0.015324
2054.000000	0.015289
2053.000000	0.015270
2052.000000	0.015260
2051.000000	0.015217
2050.000000	0.015142
2049.000000	0.015080
2048.000000	0.015035
2047.000000	0.014971
2046.000000	0.014895
2045.000000	0.014852
2044.000000	0.014835
2043.000000	0.014791
2042.000000	0.014699
2041.000000	0.014587
2040.000000	0.014456
2039.000000	0.014290
2038.000000	0.014120
2037.000000	0.013996
2036.000000	0.013901
2035.000000	0.013773
2034.000000	0.013606
2033.000000	0.013441
2032.000000	0.013287
2031.000000	0.013108
2030.000000	0.012913
2029.000000	0.012748
2028.000000	0.012605
2027.000000	0.012433
2026.000000	0.012230
2025.000000	0.012039
2024.000000	0.011859
2023.000000	0.011654
2022.000000	0.011442
2021.000000	0.011285
2020.000000	0.011191
2019.000000	0.011102
2018.000000	0.010977
2017.000000	0.010810
2016.000000	0.010583
2015.000000	0.010287
2014.000000	0.009997
2013.000000	0.009804
2012.000000	0.009698
2011.000000	0.009597
2010.000000	0.009471
2009.000000	0.009354
2008.000000	0.009240
2007.000000	0.009089
2006.000000	0.008913
2005.000000	0.008773
2004.000000	0.008676
2003.000000	0.008575
2002.000000	0.008466
2001.000000	0.008383
2000.000000	0.008321
1999.000000	0.008227
1998.000000	0.008102
1997.000000	0.008007
1996.000000	0.007970
1995.000000	0.007968
1994.000000	0.007997
1993.000000	0.008048
1992.000000	0.008037
1991.000000	0.007879
1990.000000	0.007636
1989.000000	0.007468
1988.000000	0.007422
1987.000000	0.007401
1986.000000	0.007348
1985.000000	0.007302
1984.000000	0.007289
1983.000000	0.007268
1982.000000	0.007228
1981.000000	0.007207
1980.000000	0.007212
1979.000000	0.007199
1978.000000	0.007163
1977.000000	0.007157
1976.000000	0.007178
1975.000000	0.007164
1974.000000	0.007114
1973.000000	0.007092
1972.000000	0.007114
1971.000000	0.007140
1970.000000	0.007182
1969.000000	0.007285
1968.000000	0.007410
1967.000000	0.007438
1966.000000	0.007333
1965.000000	0.007184
1964.000000	0.007078
1963.000000	0.007030
1962.000000	0.007035
1961.000000	0.007095
1960.000000	0.007165
1959.000000	0.007177
1958.000000	0.007143
1957.000000	0.007137
1956.000000	0.007167
1955.000000	0.007172
1954.000000	0.007141
1953.000000	0.007136
1952.000000	0.007166
1951.000000	0.007176
1950.000000	0.007160
1949.000000	0.007164
1948.000000	0.007201
1947.000000	0.007245
1946.000000	0.007315
1945.000000	0.007459
1944.000000	0.007626
1943.000000	0.007673
1942.000000	0.007531
1941.000000	0.007278
1940.000000	0.007042
1939.000000	0.006912
1938.000000	0.006913
1937.000000	0.007010
1936.000000	0.007115
1935.000000	0.007154
1934.000000	0.007149
1933.000000	0.007169
1932.000000	0.007192
1931.000000	0.007162
1930.000000	0.007097
1929.000000	0.007070
1928.000000	0.007106
1927.000000	0.007162
1926.000000	0.007267
1925.000000	0.007482
1924.000000	0.007761
1923.000000	0.007960
1922.000000	0.007986
1921.000000	0.007898
1920.000000	0.007825
1919.000000	0.007807
1918.000000	0.007793
1917.000000	0.007740
1916.000000	0.007679
1915.000000	0.007701
1914.000000	0.007884
1913.000000	0.008200
1912.000000	0.008513
1911.000000	0.008719
1910.000000	0.008838
1909.000000	0.008924
1908.000000	0.008953
1907.000000	0.008864
1906.000000	0.008734
1905.000000	0.008681
1904.000000	0.008694
1903.000000	0.008685
1902.000000	0.008626
1901.000000	0.008585
1900.000000	0.008599
1899.000000	0.008625
1898.000000	0.008674
1897.000000	0.008800
1896.000000	0.008965
1895.000000	0.009064
1894.000000	0.009060
1893.000000	0.009037
1892.000000	0.009084
1891.000000	0.009187
1890.000000	0.009282
1889.000000	0.009326
1888.000000	0.009295
1887.000000	0.009240
1886.000000	0.009311
1885.000000	0.009564
1884.000000	0.009861
1883.000000	0.010045
1882.000000	0.010138
1881.000000	0.010268
1880.000000	0.010466
1879.000000	0.010642
1878.000000	0.010777
1877.000000	0.010947
1876.000000	0.011149
1875.000000	0.011320
1874.000000	0.011485
1873.000000	0.011728
1872.000000	0.012048
1871.000000	0.012354
1870.000000	0.012602
1869.000000	0.012812
1868.000000	0.012960
1867.000000	0.012968
1866.000000	0.012903
1865.000000	0.012977
1864.000000	0.013230
1863.000000	0.013509
1862.000000	0.013744
1861.000000	0.013989
1860.000000	0.014243
1859.000000	0.014435
1858.000000	0.014576
1857.000000	0.014754
1856.000000	0.014979
1855.000000	0.015181
1854.000000	0.015380
1853.000000	0.015657
1852.000000	0.016031
1851.000000	0.016414
1850.000000	0.016816
1849.000000	0.017304
1848.000000	0.017788
1847.000000	0.018116
1846.000000	0.018344
1845.000000	0.018662
1844.000000	0.019017
1843.000000	0.019202
1842.000000	0.019299
1841.000000	0.019635
1840.000000	0.020330
1839.000000	0.021174
1838.000000	0.021957
1837.000000	0.022636
1836.000000	0.023234
1835.000000	0.023739
1834.000000	0.024179
1833.000000	0.024666
1832.000000	0.025262
1831.000000	0.025892
1830.000000	0.026536
1829.000000	0.027231
1828.000000	0.027877
1827.000000	0.028455
1826.000000	0.029107
1825.000000	0.029861
1824.000000	0.030567
1823.000000	0.031162
1822.000000	0.031848
1821.000000	0.032817
1820.000000	0.033937
1819.000000	0.034932
1818.000000	0.035764
1817.000000	0.036579
1816.000000	0.037442
1815.000000	0.038325
1814.000000	0.039271
1813.000000	0.040386
1812.000000	0.041594
1811.000000	0.042708
1810.000000	0.043698
1809.000000	0.044660
1808.000000	0.045652
1807.000000	0.046666
1806.000000	0.047765
1805.000000	0.049071
1804.000000	0.050524
1803.000000	0.051894
1802.000000	0.053060
1801.000000	0.054164
1800.000000	0.055330
1799.000000	0.056591
1798.000000	0.058036
1797.000000	0.059708
1796.000000	0.061435
1795.000000	0.063031
1794.000000	0.064637
1793.000000	0.066534
1792.000000	0.068562
1791.000000	0.070285
1790.000000	0.071693
1789.000000	0.073311
1788.000000	0.075488
1787.000000	0.078039
1786.000000	0.080643
1785.000000	0.083170
1784.000000	0.085612
1783.000000	0.088066
1782.000000	0.090756
1781.000000	0.093921
1780.000000	0.097367
1779.000000	0.100704
1778.000000	0.103954
1777.000000	0.107393
1776.000000	0.111029
1775.000000	0.114738
1774.000000	0.118925
1773.000000	0.124234
1772.000000	0.130386
1771.000000	0.136206
1770.000000	0.141280
1769.000000	0.146508
1768.000000	0.152610
1767.000000	0.159250
1766.000000	0.165893
1765.000000	0.172673
1764.000000	0.180026
1763.000000	0.188157
1762.000000	0.196859
1761.000000	0.205664
1760.000000	0.214108
1759.000000	0.222230
1758.000000	0.230548
1757.000000	0.239368
1756.000000	0.248131
1755.000000	0.256018
1754.000000	0.263309
1753.000000	0.271035
1752.000000	0.279543
1751.000000	0.287968
1750.000000	0.295444
1749.000000	0.302037
1748.000000	0.308090
1747.000000	0.313605
1746.000000	0.318666
1745.000000	0.323550
1744.000000	0.328087
1743.000000	0.331798
1742.000000	0.334679
1741.000000	0.337293
1740.000000	0.339884
1739.000000	0.342024
1738.000000	0.343315
1737.000000	0.343994
1736.000000	0.344624
1735.000000	0.345451
1734.000000	0.346135
1733.000000	0.346276
1732.000000	0.345617
1731.000000	0.344203
1730.000000	0.342440
1729.000000	0.340827
1728.000000	0.339468
1727.000000	0.338181
1726.000000	0.337067
1725.000000	0.336326
1724.000000	0.335722
1723.000000	0.334915
1722.000000	0.333919
1721.000000	0.332962
1720.000000	0.332196
1719.000000	0.331790
1718.000000	0.332080
1717.000000	0.333024
1716.000000	0.333582
1715.000000	0.332942
1714.000000	0.331702
1713.000000	0.330917
1712.000000	0.330951
1711.000000	0.331467
1710.000000	0.332159
1709.000000	0.333069
1708.000000	0.334186
1707.000000	0.335419
1706.000000	0.337031
1705.000000	0.339147
1704.000000	0.341136
1703.000000	0.342586
1702.000000	0.344467
1701.000000	0.348134
1700.000000	0.352964
1699.000000	0.357445
1698.000000	0.361932
1697.000000	0.367760
1696.000000	0.375162
1695.000000	0.382254
1694.000000	0.387301
1693.000000	0.391249
1692.000000	0.395658
1691.000000	0.401126
1690.000000	0.407404
1689.000000	0.413677
1688.000000	0.419284
1687.000000	0.424484
1686.000000	0.430862
1685.000000	0.439886
1684.000000	0.450293
1683.000000	0.458603
1682.000000	0.463975
1681.000000	0.469379
1680.000000	0.476371
1679.000000	0.483864
1678.000000	0.490948
1677.000000	0.498330
1676.000000	0.507069
1675.000000	0.516631
1674.000000	0.525657
1673.000000	0.534073
1672.000000	0.542607
1671.000000	0.551829
1670.000000	0.562021
1669.000000	0.572853
1668.000000	0.583142
1667.000000	0.592018
1666.000000	0.599973
1665.000000	0.608195
1664.000000	0.617348
1663.000000	0.626946
1662.000000	0.635991
1661.000000	0.644223
1660.000000	0.651867
1659.000000	0.658877
1658.000000	0.665102
1657.000000	0.670524
1656.000000	0.675250
1655.000000	0.680047
1654.000000	0.686688
1653.000000	0.695874
1652.000000	0.704258
1651.000000	0.708914
1650.000000	0.711247
1649.000000	0.713242
1648.000000	0.716731
1647.000000	0.721798
1646.000000	0.726657
1645.000000	0.730364
1644.000000	0.733540
1643.000000	0.736484
1642.000000	0.739122
1641.000000	0.742026
1640.000000	0.745221
1639.000000	0.747841
1638.000000	0.749829
1637.000000	0.752512
1636.000000	0.756608
1635.000000	0.760410
1634.000000	0.762354
1633.000000	0.763622
1632.000000	0.765405
1631.000000	0.767237
1630.000000	0.768619
1629.000000	0.769813
1628.000000	0.771014
1627.000000	0.771735
1626.000000	0.771669
1625.000000	0.771456
1624.000000	0.771584
1623.000000	0.771480
1622.000000	0.770460
1621.000000	0.768764
1620.000000	0.766822
1619.000000	0.764450
1618.000000	0.761401
1617.000000	0.757813
1616.000000	0.753553
1615.000000	0.747845
1614.000000	0.740658
1613.000000	0.733030
1612.000000	0.725712
1611.000000	0.718470
1610.000000	0.710833
1609.000000	0.702976
1608.000000	0.695191
1607.000000	0.687195
1606.000000	0.678596
1605.000000	0.669572
1604.000000	0.660367
1603.000000	0.650772
1602.000000	0.640612
1601.000000	0.630157
1600.000000	0.619758
1599.000000	0.609366
1598.000000	0.598742
1597.000000	0.587871
1596.000000	0.576797
1595.000000	0.565323
1594.000000	0.553228
1593.000000	0.540600
1592.000000	0.527682
1591.000000	0.514527
1590.000000	0.501086
1589.000000	0.487523
1588.000000	0.474108
1587.000000	0.460946
1586.000000	0.448021
1585.000000	0.435411
1584.000000	0.423273
1583.000000	0.411545
1582.000000	0.400185
1581.000000	0.389345
1580.000000	0.379228
1579.000000	0.369799
1578.000000	0.360793
1577.000000	0.351778
1576.000000	0.342574
1575.000000	0.333494
1574.000000	0.324843
1573.000000	0.316864
1572.000000	0.309551
1571.000000	0.302637
1570.000000	0.295786
1569.000000	0.289097
1568.000000	0.283044
1567.000000	0.277934
1566.000000	0.273651
1565.000000	0.269706
1564.000000	0.265908
1563.000000	0.262408
1562.000000	0.259483
1561.000000	0.257064
1560.000000	0.254530
1559.000000	0.251274
1558.000000	0.248151
1557.000000	0.244800
1556.000000	0.242652
1555.000000	0.242066
1554.000000	0.241816
1553.000000	0.241362
1552.000000	0.240667
1551.000000	0.239932
1550.000000	0.239207
1549.000000	0.238306
1548.000000	0.237331
1547.000000	0.236668
1546.000000	0.236404
1545.000000	0.236115
1544.000000	0.235481
1543.000000	0.234687
1542.000000	0.234300
1541.000000	0.234849
1540.000000	0.236460
1539.000000	0.238227
1538.000000	0.239098
1537.000000	0.239616
1536.000000	0.240259
1535.000000	0.241463
1534.000000	0.243632
1533.000000	0.246228
1532.000000	0.248432
1531.000000	0.250491
1530.000000	0.253096
1529.000000	0.256114
1528.000000	0.259062
1527.000000	0.261882
1526.000000	0.264676
1525.000000	0.267390
1524.000000	0.270227
1523.000000	0.274075
1522.000000	0.279636
1521.000000	0.285896
1520.000000	0.290843
1519.000000	0.294340
1518.000000	0.297720
1517.000000	0.301303
1516.000000	0.304090
1515.000000	0.305254
1514.000000	0.305170
1513.000000	0.304426
1512.000000	0.302933
1511.000000	0.300622
1510.000000	0.297739
1509.000000	0.294393
1508.000000	0.290148
1507.000000	0.284323
1506.000000	0.276856
1505.000000	0.268649
1504.000000	0.261958
1503.000000	0.256616
1502.000000	0.251216
1501.000000	0.245521
1500.000000	0.239622
1499.000000	0.233649
1498.000000	0.228035
1497.000000	0.223169
1496.000000	0.219026
1495.000000	0.215482
1494.000000	0.212672
1493.000000	0.210818
1492.000000	0.209920
1491.000000	0.209773
1490.000000	0.210194
1489.000000	0.211145
1488.000000	0.212515
1487.000000	0.214428
1486.000000	0.217139
1485.000000	0.220712
1484.000000	0.225071
1483.000000	0.230123
1482.000000	0.235956
1481.000000	0.242483
1480.000000	0.249382
1479.000000	0.256625
1478.000000	0.264652
1477.000000	0.273709
1476.000000	0.283529
1475.000000	0.294109
1474.000000	0.306266
1473.000000	0.320515
1472.000000	0.335384
1471.000000	0.348758
1470.000000	0.360524
1469.000000	0.371569
1468.000000	0.381952
1467.000000	0.391347
1466.000000	0.399678
1465.000000	0.406889
1464.000000	0.412576
1463.000000	0.416750
1462.000000	0.420175
1461.000000	0.423371
1460.000000	0.426432
1459.000000	0.429758
1458.000000	0.434037
1457.000000	0.438779
1456.000000	0.442085
1455.000000	0.443613
1454.000000	0.444649
1453.000000	0.445552
1452.000000	0.446171
1451.000000	0.446408
1450.000000	0.446284
1449.000000	0.445883
1448.000000	0.445176
1447.000000	0.444226
1446.000000	0.443329
1445.000000	0.442820
1444.000000	0.442651
1443.000000	0.442697
1442.000000	0.442986
1441.000000	0.443518
1440.000000	0.444201
1439.000000	0.445069
1438.000000	0.446349
1437.000000	0.447961
1436.000000	0.449529
1435.000000	0.451116
1434.000000	0.453183
1433.000000	0.455725
1432.000000	0.458347
1431.000000	0.460711
1430.000000	0.462748
1429.000000	0.464475
1428.000000	0.465814
1427.000000	0.466816
1426.000000	0.467671
1425.000000	0.468388
1424.000000	0.468582
1423.000000	0.467995
1422.000000	0.466920
1421.000000	0.465764
1420.000000	0.464354
1419.000000	0.462182
1418.000000	0.459320
1417.000000	0.456209
1416.000000	0.453200
1415.000000	0.450492
1414.000000	0.448108
1413.000000	0.445911
1412.000000	0.443717
1411.000000	0.441503
1410.000000	0.439392
1409.000000	0.437449
1408.000000	0.435667
1407.000000	0.434065
1406.000000	0.432624
1405.000000	0.431249
1404.000000	0.429831
1403.000000	0.428506
1402.000000	0.427581
1401.000000	0.427100
1400.000000	0.426853
1399.000000	0.426701
1398.000000	0.426740
1397.000000	0.427145
1396.000000	0.427998
1395.000000	0.429220
1394.000000	0.430670
1393.000000	0.432415
1392.000000	0.434710
1391.000000	0.437689
1390.000000	0.441295
1389.000000	0.445426
1388.000000	0.449892
1387.000000	0.454390
1386.000000	0.458655
1385.000000	0.462688
1384.000000	0.466667
1383.000000	0.470663
1382.000000	0.474563
1381.000000	0.478182
1380.000000	0.481390
1379.000000	0.484110
1378.000000	0.486317
1377.000000	0.488058
1376.000000	0.489404
1375.000000	0.490352
1374.000000	0.490759
1373.000000	0.490455
1372.000000	0.489517
1371.000000	0.488239
1370.000000	0.486674
1369.000000	0.484561
1368.000000	0.481687
1367.000000	0.478218
1366.000000	0.474552
1365.000000	0.470881
1364.000000	0.467064
1363.000000	0.462932
1362.000000	0.458514
1361.000000	0.454002
1360.000000	0.449712
1359.000000	0.445929
1358.000000	0.442705
1357.000000	0.439894
1356.000000	0.437342
1355.000000	0.435057
1354.000000	0.433166
1353.000000	0.431745
1352.000000	0.430810
1351.000000	0.430445
1350.000000	0.430741
1349.000000	0.431690
1348.000000	0.433228
1347.000000	0.435381
1346.000000	0.438218
1345.000000	0.441688
1344.000000	0.445655
1343.000000	0.450102
1342.000000	0.455104
1341.000000	0.460606
1340.000000	0.466319
1339.000000	0.471912
1338.000000	0.477265
1337.000000	0.482479
1336.000000	0.487668
1335.000000	0.492852
1334.000000	0.498002
1333.000000	0.503032
1332.000000	0.507803
1331.000000	0.512231
1330.000000	0.516358
1329.000000	0.520262
1328.000000	0.523987
1327.000000	0.527649
1326.000000	0.531467
1325.000000	0.535623
1324.000000	0.540156
1323.000000	0.545063
1322.000000	0.550355
1321.000000	0.555861
1320.000000	0.561050
1319.000000	0.565138
1318.000000	0.567335
1317.000000	0.567024
1316.000000	0.563861
1315.000000	0.557902
1314.000000	0.549642
1313.000000	0.539781
1312.000000	0.529079
1311.000000	0.518325
1310.000000	0.508167
1309.000000	0.498901
1308.000000	0.490520
1307.000000	0.483008
1306.000000	0.476418
1305.000000	0.470711
1304.000000	0.465694
1303.000000	0.461196
1302.000000	0.457150
1301.000000	0.453513
1300.000000	0.450270
1299.000000	0.447508
1298.000000	0.445376
1297.000000	0.443934
1296.000000	0.443150
1295.000000	0.443035
1294.000000	0.443614
1293.000000	0.444818
1292.000000	0.446508
1291.000000	0.448616
1290.000000	0.451155
1289.000000	0.454056
1288.000000	0.457141
1287.000000	0.460277
1286.000000	0.463423
1285.000000	0.466511
1284.000000	0.469397
1283.000000	0.471977
1282.000000	0.474266
1281.000000	0.476324
1280.000000	0.478221
1279.000000	0.480096
1278.000000	0.482116
1277.000000	0.484316
1276.000000	0.486592
1275.000000	0.488868
1274.000000	0.491160
1273.000000	0.493435
1272.000000	0.495546
1271.000000	0.497399
1270.000000	0.499046
1269.000000	0.500555
1268.000000	0.501897
1267.000000	0.503019
1266.000000	0.503932
1265.000000	0.504629
1264.000000	0.505059
1263.000000	0.505231
1262.000000	0.505229
1261.000000	0.505088
1260.000000	0.504749
1259.000000	0.504213
1258.000000	0.503590
1257.000000	0.502957
1256.000000	0.502292
1255.000000	0.501605
1254.000000	0.500992
1253.000000	0.500503
1252.000000	0.500073
1251.000000	0.499652
1250.000000	0.499256
1249.000000	0.498858
1248.000000	0.498349
1247.000000	0.497655
1246.000000	0.496804
1245.000000	0.495798
1244.000000	0.494579
1243.000000	0.493144
1242.000000	0.491569
1241.000000	0.489873
1240.000000	0.487976
1239.000000	0.485850
1238.000000	0.483570
1237.000000	0.481175
1236.000000	0.478594
1235.000000	0.475760
1234.000000	0.472675
1233.000000	0.469345
1232.000000	0.465739
1231.000000	0.461866
1230.000000	0.457788
1229.000000	0.453531
1228.000000	0.449106
1227.000000	0.444588
1226.000000	0.440090
1225.000000	0.435647
1224.000000	0.431237
1223.000000	0.426912
1222.000000	0.422781
1221.000000	0.418878
1220.000000	0.415158
1219.000000	0.411626
1218.000000	0.408337
1217.000000	0.405299
1216.000000	0.402477
1215.000000	0.399877
1214.000000	0.397533
1213.000000	0.395426
1212.000000	0.393517
1211.000000	0.391833
1210.000000	0.390409
1209.000000	0.389178
1208.000000	0.388006
1207.000000	0.386816
1206.000000	0.385579
1205.000000	0.384213
1204.000000	0.382616
1203.000000	0.380760
1202.000000	0.378680
1201.000000	0.376381
1200.000000	0.373871
1199.000000	0.371249
1198.000000	0.368671
1197.000000	0.366261
1196.000000	0.364137
1195.000000	0.362461
1194.000000	0.361388
1193.000000	0.360964
1192.000000	0.361185
1191.000000	0.362119
1190.000000	0.363837
1189.000000	0.366332
1188.000000	0.369536
1187.000000	0.373424
1186.000000	0.378016
1185.000000	0.383271
1184.000000	0.389160
1183.000000	0.395782
1182.000000	0.403317
1181.000000	0.411869
1180.000000	0.421371
1179.000000	0.431716
1178.000000	0.442893
1177.000000	0.454965
1176.000000	0.468054
1175.000000	0.482309
1174.000000	0.497857
1173.000000	0.514713
1172.000000	0.532748
1171.000000	0.551814
1170.000000	0.571804
1169.000000	0.592535
1168.000000	0.613611
1167.000000	0.634538
1166.000000	0.654855
1165.000000	0.674099
1164.000000	0.691705
1163.000000	0.707181
1162.000000	0.720438
1161.000000	0.731598
1160.000000	0.740751
1159.000000	0.748059
1158.000000	0.753851
1157.000000	0.758452
1156.000000	0.761847
1155.000000	0.763953
1154.000000	0.764964
1153.000000	0.765121
1152.000000	0.764478
1151.000000	0.763054
1150.000000	0.761073
1149.000000	0.758734
1148.000000	0.755950
1147.000000	0.752612
1146.000000	0.748849
1145.000000	0.744843
1144.000000	0.740624
1143.000000	0.736302
1142.000000	0.732234
1141.000000	0.728746
1140.000000	0.725926
1139.000000	0.723873
1138.000000	0.722924
1137.000000	0.723353
1136.000000	0.725114
1135.000000	0.728089
1134.000000	0.732330
1133.000000	0.737895
1132.000000	0.744558
1131.000000	0.751994
1130.000000	0.760071
1129.000000	0.768678
1128.000000	0.777510
1127.000000	0.786266
1126.000000	0.794928
1125.000000	0.803549
1124.000000	0.811962
1123.000000	0.820012
1122.000000	0.827897
1121.000000	0.835927
1120.000000	0.844131
1119.000000	0.852471
1118.000000	0.861175
1117.000000	0.870459
1116.000000	0.880100
1115.000000	0.889655
1114.000000	0.898934
1113.000000	0.907842
1112.000000	0.916034
1111.000000	0.923209
1110.000000	0.929478
1109.000000	0.935028
1108.000000	0.939622
1107.000000	0.942955
1106.000000	0.945198
1105.000000	0.946612
1104.000000	0.947086
1103.000000	0.946507
1102.000000	0.945283
1101.000000	0.943963
1100.000000	0.942676
1099.000000	0.941475
1098.000000	0.940795
1097.000000	0.941069
1096.000000	0.942211
1095.000000	0.944056
1094.000000	0.946914
1093.000000	0.951239
1092.000000	0.957045
1091.000000	0.964095
1090.000000	0.972432
1089.000000	0.982114
1088.000000	0.992760
1087.000000	1.003935
1086.000000	1.015653
1085.000000	1.027980
1084.000000	1.040422
1083.000000	1.052366
1082.000000	1.063755
1081.000000	1.074620
1080.000000	1.084266
1079.000000	1.091796
1078.000000	1.097063
1077.000000	1.100204
1076.000000	1.100905
1075.000000	1.098928
1074.000000	1.094959
1073.000000	1.090047
1072.000000	1.084680
1071.000000	1.079307
1070.000000	1.074998
1069.000000	1.072779
1068.000000	1.072762
1067.000000	1.074666
1066.000000	1.078589
1065.000000	1.084627
1064.000000	1.092198
1063.000000	1.100480
1062.000000	1.109245
1061.000000	1.118402
1060.000000	1.127281
1059.000000	1.135255
1058.000000	1.142630
1057.000000	1.149964
1056.000000	1.156968
1055.000000	1.162987
1054.000000	1.168085
1053.000000	1.172684
1052.000000	1.176567
1051.000000	1.179378
1050.000000	1.181564
1049.000000	1.183708
1048.000000	1.185592
1047.000000	1.186912
1046.000000	1.188232
1045.000000	1.190181
1044.000000	1.192452
1043.000000	1.194627
1042.000000	1.197228
1041.000000	1.200955
1040.000000	1.205512
1039.000000	1.210227
1038.000000	1.215113
1037.000000	1.220257
1036.000000	1.224861
1035.000000	1.228092
1034.000000	1.230282
1033.000000	1.232128
1032.000000	1.233402
1031.000000	1.233584
1030.000000	1.233071
1029.000000	1.232424
1028.000000	1.231260
1027.000000	1.229007
1026.000000	1.226056
1025.000000	1.223008
1024.000000	1.219479
1023.000000	1.214868
1022.000000	1.209515
1021.000000	1.203980
1020.000000	1.197903
1019.000000	1.190636
1018.000000	1.182370
1017.000000	1.173604
1016.000000	1.164154
1015.000000	1.153687
1014.000000	1.142482
1013.000000	1.130899
1012.000000	1.118743
1011.000000	1.105884
1010.000000	1.092861
1009.000000	1.080099
1008.000000	1.067244
1007.000000	1.053896
1006.000000	1.040332
1005.000000	1.026956
1004.000000	1.013599
1003.000000	0.999965
1002.000000	0.986198
1001.000000	0.972475
1000.000000	0.958617
999.000000	0.944502
998.000000	0.930413
997.000000	0.916545
996.000000	0.902564
995.000000	0.888098
994.000000	0.873138
993.000000	0.857672
992.000000	0.841402
991.000000	0.824063
990.000000	0.805753
989.000000	0.786570
988.000000	0.766313
987.000000	0.744859
986.000000	0.722354
985.000000	0.698996
984.000000	0.674867
983.000000	0.650124
982.000000	0.625163
981.000000	0.600342
980.000000	0.575898
979.000000	0.552111
978.000000	0.529276
977.000000	0.507530
976.000000	0.486862
975.000000	0.467316
974.000000	0.448996
973.000000	0.431900
972.000000	0.415919
971.000000	0.400991
970.000000	0.387102
969.000000	0.374148
968.000000	0.361992
967.000000	0.350555
966.000000	0.339781
965.000000	0.329544
964.000000	0.319700
963.000000	0.310212
962.000000	0.301081
961.000000	0.292248
960.000000	0.283654
959.000000	0.275318
958.000000	0.267261
957.000000	0.259415
956.000000	0.251719
955.000000	0.244204
954.000000	0.236908
953.000000	0.229809
952.000000	0.222907
951.000000	0.216312
950.000000	0.210153
949.000000	0.204479
948.000000	0.199360
947.000000	0.194916
946.000000	0.191189
945.000000	0.188066
944.000000	0.185395
943.000000	0.183085
942.000000	0.181021
941.000000	0.179010
940.000000	0.176927
939.000000	0.174805
938.000000	0.172723
937.000000	0.170688
936.000000	0.168702
935.000000	0.166832
934.000000	0.165115
933.000000	0.163512
932.000000	0.162010
931.000000	0.160663
930.000000	0.159468
929.000000	0.158311
928.000000	0.157097
927.000000	0.155836
926.000000	0.154502
925.000000	0.152951
924.000000	0.151066
923.000000	0.148861
922.000000	0.146378
921.000000	0.143597
920.000000	0.140513
919.000000	0.137211
918.000000	0.133764
917.000000	0.130159
916.000000	0.126398
915.000000	0.122533
914.000000	0.118546
913.000000	0.114311
912.000000	0.109770
911.000000	0.105032
910.000000	0.100229
909.000000	0.095430
908.000000	0.090758
907.000000	0.086439
906.000000	0.082635
905.000000	0.079362
904.000000	0.076605
903.000000	0.074400
902.000000	0.072714
901.000000	0.071384
900.000000	0.070257
899.000000	0.069253
898.000000	0.068246
897.000000	0.067041
896.000000	0.065540
895.000000	0.063794
894.000000	0.061842
893.000000	0.059631
892.000000	0.057148
891.000000	0.054485
890.000000	0.051687
889.000000	0.048695
888.000000	0.045503
887.000000	0.042233
886.000000	0.038985
885.000000	0.035775
884.000000	0.032666
883.000000	0.029814
882.000000	0.027294
881.000000	0.025042
880.000000	0.023044
879.000000	0.021418
878.000000	0.020219
877.000000	0.019357
876.000000	0.018763
875.000000	0.018475
874.000000	0.018491
873.000000	0.018681
872.000000	0.018948
871.000000	0.019324
870.000000	0.019831
869.000000	0.020428
868.000000	0.021116
867.000000	0.021960
866.000000	0.022909
865.000000	0.023748
864.000000	0.024290
863.000000	0.024489
862.000000	0.024342
861.000000	0.023835
860.000000	0.023066
859.000000	0.022226
858.000000	0.021403
857.000000	0.020510
856.000000	0.019458
855.000000	0.018268
854.000000	0.016951
853.000000	0.015468
852.000000	0.013859
851.000000	0.012272
850.000000	0.010787
849.000000	0.009379
848.000000	0.008077
847.000000	0.007008
846.000000	0.006226
845.000000	0.005664
844.000000	0.005328
843.000000	0.005358
842.000000	0.005842
841.000000	0.006724
840.000000	0.007937
839.000000	0.009482
838.000000	0.011285
837.000000	0.013149
836.000000	0.014912
835.000000	0.016478
834.000000	0.017681
833.000000	0.018277
832.000000	0.018199
831.000000	0.017656
830.000000	0.016925
829.000000	0.016184
828.000000	0.015607
827.000000	0.015419
826.000000	0.015719
825.000000	0.016407
824.000000	0.017351
823.000000	0.018510
822.000000	0.019816
821.000000	0.021134
820.000000	0.022404
819.000000	0.023686
818.000000	0.024995
817.000000	0.026252
816.000000	0.027441
815.000000	0.028642
814.000000	0.029877
813.000000	0.031089
812.000000	0.032329
811.000000	0.033804
810.000000	0.035665
809.000000	0.037898
808.000000	0.040475
807.000000	0.043443
806.000000	0.046806
805.000000	0.050456
804.000000	0.054304
803.000000	0.058342
802.000000	0.062498
801.000000	0.066583
800.000000	0.070432
799.000000	0.073965
798.000000	0.077073
797.000000	0.079635
796.000000	0.081731
795.000000	0.083715
794.000000	0.085957
793.000000	0.088668
792.000000	0.091985
791.000000	0.096128
790.000000	0.101377
789.000000	0.108039
788.000000	0.116492
787.000000	0.127020
786.000000	0.139480
785.000000	0.153119
784.000000	0.166733
783.000000	0.178899
782.000000	0.188173
781.000000	0.193444
780.000000	0.194444
779.000000	0.191928
778.000000	0.187195
777.000000	0.181504
776.000000	0.175809
775.000000	0.170737
774.000000	0.166546
773.000000	0.163140
772.000000	0.160317
771.000000	0.157949
770.000000	0.155948
769.000000	0.154241
768.000000	0.152837
767.000000	0.151790
766.000000	0.150992
765.000000	0.150135
764.000000	0.148943
763.000000	0.147327
762.000000	0.145255
761.000000	0.142651
760.000000	0.139519
759.000000	0.136027
758.000000	0.132341
757.000000	0.128507
756.000000	0.124558
755.000000	0.120602
754.000000	0.116718
753.000000	0.112910
752.000000	0.109243
751.000000	0.105872
750.000000	0.102871
749.000000	0.100156
748.000000	0.097658
747.000000	0.095415
746.000000	0.093435
745.000000	0.091639
744.000000	0.090003
743.000000	0.088638
742.000000	0.087627
741.000000	0.086920
740.000000	0.086465
739.000000	0.086291
738.000000	0.086416
737.000000	0.086794
736.000000	0.087438
735.000000	0.088447
734.000000	0.089853
733.000000	0.091549
732.000000	0.093451
731.000000	0.095566
730.000000	0.097858
729.000000	0.100201
728.000000	0.102556
727.000000	0.105053
726.000000	0.107810
725.000000	0.110794
724.000000	0.113928
723.000000	0.117199
722.000000	0.120569
721.000000	0.123909
720.000000	0.127103
719.000000	0.130155
718.000000	0.133106
717.000000	0.135967
716.000000	0.138774
715.000000	0.141597
714.000000	0.144382
713.000000	0.146938
712.000000	0.149156
711.000000	0.151128
710.000000	0.152973
709.000000	0.154663
708.000000	0.156136
707.000000	0.157428
706.000000	0.158608
705.000000	0.159681
704.000000	0.160674
703.000000	0.161701
702.000000	0.162872
701.000000	0.164228
700.000000	0.165848
699.000000	0.167854
698.000000	0.170205
697.000000	0.172597
696.000000	0.174669
695.000000	0.176232
694.000000	0.177232
693.000000	0.177660
692.000000	0.177643
691.000000	0.177464
690.000000	0.177363
689.000000	0.177393
688.000000	0.177563
687.000000	0.177974
686.000000	0.178697
685.000000	0.179678
684.000000	0.180888
683.000000	0.182422
682.000000	0.184327
681.000000	0.186490
680.000000	0.188829
679.000000	0.191431
678.000000	0.194353
677.000000	0.197451
676.000000	0.200539
675.000000	0.203583
674.000000	0.206593
673.000000	0.209418
672.000000	0.211800
671.000000	0.213647
670.000000	0.215114
669.000000	0.216424
668.000000	0.217709
667.000000	0.219038
666.000000	0.220299
665.000000	0.221233
664.000000	0.221734
663.000000	0.221849
662.000000	0.221645
661.000000	0.221151
660.000000	0.220421
659.000000	0.219619
658.000000	0.218931
657.000000	0.218447
656.000000	0.218188
655.000000	0.218160
654.000000	0.218359
653.000000	0.218774
652.000000	0.219412
651.000000	0.220282
650.000000	0.221331
649.000000	0.222472
648.000000	0.223682
647.000000	0.224998
646.000000	0.226386
645.000000	0.227697
644.000000	0.228813
643.000000	0.229763
642.000000	0.230630
641.000000	0.231429
640.000000	0.232144
639.000000	0.232804
638.000000	0.233454
637.000000	0.234099
636.000000	0.234750
635.000000	0.235440
634.000000	0.236150
633.000000	0.236809
632.000000	0.237426
631.000000	0.238159
630.000000	0.239145
629.000000	0.240365
628.000000	0.241747
627.000000	0.243297
626.000000	0.245040
625.000000	0.246919
624.000000	0.248874
623.000000	0.250924
622.000000	0.253064
621.000000	0.255152
620.000000	0.257003
619.000000	0.258544
618.000000	0.259797
617.000000	0.260778
616.000000	0.261533
615.000000	0.262189
614.000000	0.262855
613.000000	0.263497
612.000000	0.264000
611.000000	0.264307
610.000000	0.264396
609.000000	0.264180
608.000000	0.263589
607.000000	0.262711
606.000000	0.261758
605.000000	0.260889
604.000000	0.260153
603.000000	0.259551
602.000000	0.259028
601.000000	0.258489
600.000000	0.257936
599.000000	0.257525
598.000000	0.257365
597.000000	0.257373
596.000000	0.257417
595.000000	0.257507
594.000000	0.257698
593.000000	0.257934
592.000000	0.258145
591.000000	0.258406
590.000000	0.258894
589.000000	0.259724
588.000000	0.260946
587.000000	0.262591
586.000000	0.264590
585.000000	0.266749
584.000000	0.268934
583.000000	0.271160
582.000000	0.273401
581.000000	0.275462
580.000000	0.277161
579.000000	0.278531
578.000000	0.279684
577.000000	0.280543
576.000000	0.280920
575.000000	0.280776
574.000000	0.280241
573.000000	0.279409
572.000000	0.278270
571.000000	0.276876
570.000000	0.275385
569.000000	0.273927
568.000000	0.272570
567.000000	0.271393
566.000000	0.270479
565.000000	0.269859
564.000000	0.269560
563.000000	0.269590
562.000000	0.269786
561.000000	0.269805
560.000000	0.269399
559.000000	0.268624
558.000000	0.267695
557.000000	0.266736
556.000000	0.265797
555.000000	0.264968
554.000000	0.264335
553.000000	0.263900
552.000000	0.263688
551.000000	0.263811
550.000000	0.264322
549.000000	0.265173
548.000000	0.266393
547.000000	0.268126
546.000000	0.270392
545.000000	0.272990
544.000000	0.275811
543.000000	0.279011
542.000000	0.282741
541.000000	0.286911
540.000000	0.291313
539.000000	0.295786
538.000000	0.300110
537.000000	0.303926
536.000000	0.306922
535.000000	0.309049
534.000000	0.310448
533.000000	0.311271
532.000000	0.311646
531.000000	0.311722
530.000000	0.311587
529.000000	0.311193
528.000000	0.310518
527.000000	0.309744
526.000000	0.309105
525.000000	0.308648
524.000000	0.308278
523.000000	0.307959
522.000000	0.307698
521.000000	0.307380
520.000000	0.306731
519.000000	0.305454
518.000000	0.303341
517.000000	0.300345
516.000000	0.296603
515.000000	0.292351
514.000000	0.287709
513.000000	0.282599
512.000000	0.277031
511.000000	0.271307
510.000000	0.265754
509.000000	0.260353
508.000000	0.254906
507.000000	0.249500
506.000000	0.244515
505.000000	0.240199
504.000000	0.236418
503.000000	0.232797
502.000000	0.229006
501.000000	0.225103
500.000000	0.221605
499.000000	0.218962
498.000000	0.216988
497.000000	0.215059
496.000000	0.212947
495.000000	0.211107
494.000000	0.209978
493.000000	0.209434
492.000000	0.209144
491.000000	0.209104
490.000000	0.209485
489.000000	0.210282
488.000000	0.211465
487.000000	0.213154
486.000000	0.215326
485.000000	0.217665
484.000000	0.219965
483.000000	0.222356
482.000000	0.224868
481.000000	0.227153
480.000000	0.228936
479.000000	0.230371
478.000000	0.231666
477.000000	0.232683
476.000000	0.233186
475.000000	0.233178
474.000000	0.232792
473.000000	0.232023
472.000000	0.230814
471.000000	0.229219
470.000000	0.227160
469.000000	0.224269
468.000000	0.220376
467.000000	0.215844
466.000000	0.211131
465.000000	0.206270
464.000000	0.201159
463.000000	0.196048
462.000000	0.191259
461.000000	0.186701
460.000000	0.182053
459.000000	0.177166
458.000000	0.172002
457.000000	0.166543
456.000000	0.161149
455.000000	0.156325
454.000000	0.151941
453.000000	0.147416
452.000000	0.142688
451.000000	0.138406
450.000000	0.134903
449.000000	0.131695
448.000000	0.128425
447.000000	0.125456
446.000000	0.123068
445.000000	0.120829
444.000000	0.118359
443.000000	0.116005
442.000000	0.114032
441.000000	0.111970
440.000000	0.109470
439.000000	0.106942
438.000000	0.104751
437.000000	0.102569
436.000000	0.100133
435.000000	0.097949
434.000000	0.096350
433.000000	0.094684
432.000000	0.092261
431.000000	0.089379
430.000000	0.086585
429.000000	0.083765
428.000000	0.080787
427.000000	0.078096
426.000000	0.075764
425.000000	0.072908
424.000000	0.069087
423.000000	0.065239
422.000000	0.062171
421.000000	0.059210
420.000000	0.055476
419.000000	0.051421
418.000000	0.047610
417.000000	0.043893
416.000000	0.040240
415.000000	0.037098
414.000000	0.034482
413.000000	0.031359
412.000000	0.027228
411.000000	0.023221
410.000000	0.020116
409.000000	0.016869
408.000000	0.012638
407.000000	0.008472
406.000000	0.005453
405.000000	0.003031
404.000000	0.001122
403.000000	0.001361
402.000000	0.004553
401.000000	0.008433
400.000000	0.010768
