PE IR       SUBTECH     SPECTRUM    ASCII       PEDS        4.00        
   -1
G001-40C.asc
17/02/23
10:44:23.00
17/02/23
10:44:49.00
Administrator
Sample 125 By Administrator Date Thursday, February 23 2017
400.000000
#HDR
-1
-1
#GR
cm-1
A
1.0
0.0
4000.000000
-1.000000
3601
8
1.251163
0.000136
#DATA
4000.000000	0.006823
3999.000000	0.006981
3998.000000	0.007147
3997.000000	0.007318
3996.000000	0.007484
3995.000000	0.007643
3994.000000	0.007808
3993.000000	0.007984
3992.000000	0.008160
3991.000000	0.008321
3990.000000	0.008463
3989.000000	0.008602
3988.000000	0.008751
3987.000000	0.008905
3986.000000	0.009056
3985.000000	0.009201
3984.000000	0.009343
3983.000000	0.009482
3982.000000	0.009616
3981.000000	0.009757
3980.000000	0.009920
3979.000000	0.010110
3978.000000	0.010315
3977.000000	0.010515
3976.000000	0.010695
3975.000000	0.010859
3974.000000	0.011012
3973.000000	0.011158
3972.000000	0.011295
3971.000000	0.011420
3970.000000	0.011539
3969.000000	0.011658
3968.000000	0.011788
3967.000000	0.011938
3966.000000	0.012112
3965.000000	0.012308
3964.000000	0.012512
3963.000000	0.012705
3962.000000	0.012880
3961.000000	0.013046
3960.000000	0.013212
3959.000000	0.013368
3958.000000	0.013492
3957.000000	0.013582
3956.000000	0.013666
3955.000000	0.013780
3954.000000	0.013945
3953.000000	0.014169
3952.000000	0.014445
3951.000000	0.014745
3950.000000	0.015025
3949.000000	0.015253
3948.000000	0.015438
3947.000000	0.015631
3946.000000	0.015876
3945.000000	0.016138
3944.000000	0.016322
3943.000000	0.016383
3942.000000	0.016379
3941.000000	0.016409
3940.000000	0.016491
3939.000000	0.016568
3938.000000	0.016620
3937.000000	0.016728
3936.000000	0.016984
3935.000000	0.017367
3934.000000	0.017755
3933.000000	0.018034
3932.000000	0.018186
3931.000000	0.018263
3930.000000	0.018324
3929.000000	0.018404
3928.000000	0.018522
3927.000000	0.018675
3926.000000	0.018827
3925.000000	0.018945
3924.000000	0.019066
3923.000000	0.019263
3922.000000	0.019537
3921.000000	0.019824
3920.000000	0.020082
3919.000000	0.020319
3918.000000	0.020510
3917.000000	0.020601
3916.000000	0.020595
3915.000000	0.020576
3914.000000	0.020602
3913.000000	0.020645
3912.000000	0.020673
3911.000000	0.020728
3910.000000	0.020880
3909.000000	0.021152
3908.000000	0.021525
3907.000000	0.021958
3906.000000	0.022410
3905.000000	0.022836
3904.000000	0.023211
3903.000000	0.023553
3902.000000	0.023869
3901.000000	0.024077
3900.000000	0.024080
3899.000000	0.023919
3898.000000	0.023784
3897.000000	0.023808
3896.000000	0.023963
3895.000000	0.024170
3894.000000	0.024400
3893.000000	0.024620
3892.000000	0.024740
3891.000000	0.024731
3890.000000	0.024746
3889.000000	0.025003
3888.000000	0.025474
3887.000000	0.025894
3886.000000	0.026119
3885.000000	0.026294
3884.000000	0.026644
3883.000000	0.027163
3882.000000	0.027563
3881.000000	0.027637
3880.000000	0.027519
3879.000000	0.027498
3878.000000	0.027734
3877.000000	0.028130
3876.000000	0.028451
3875.000000	0.028595
3874.000000	0.028689
3873.000000	0.028918
3872.000000	0.029288
3871.000000	0.029562
3870.000000	0.029562
3869.000000	0.029483
3868.000000	0.029682
3867.000000	0.030176
3866.000000	0.030621
3865.000000	0.030838
3864.000000	0.031009
3863.000000	0.031291
3862.000000	0.031611
3861.000000	0.031876
3860.000000	0.032107
3859.000000	0.032319
3858.000000	0.032407
3857.000000	0.032281
3856.000000	0.032032
3855.000000	0.031888
3854.000000	0.031950
3853.000000	0.032038
3852.000000	0.032076
3851.000000	0.032319
3850.000000	0.032900
3849.000000	0.033673
3848.000000	0.034556
3847.000000	0.035492
3846.000000	0.036325
3845.000000	0.036935
3844.000000	0.037330
3843.000000	0.037580
3842.000000	0.037745
3841.000000	0.037857
3840.000000	0.037904
3839.000000	0.037902
3838.000000	0.037933
3837.000000	0.038058
3836.000000	0.038280
3835.000000	0.038604
3834.000000	0.039036
3833.000000	0.039535
3832.000000	0.040046
3831.000000	0.040566
3830.000000	0.041149
3829.000000	0.041785
3828.000000	0.042360
3827.000000	0.042769
3826.000000	0.043038
3825.000000	0.043315
3824.000000	0.043695
3823.000000	0.044088
3822.000000	0.044330
3821.000000	0.044375
3820.000000	0.044381
3819.000000	0.044581
3818.000000	0.044967
3817.000000	0.045310
3816.000000	0.045582
3815.000000	0.045994
3814.000000	0.046687
3813.000000	0.047526
3812.000000	0.048236
3811.000000	0.048779
3810.000000	0.049308
3809.000000	0.049846
3808.000000	0.050266
3807.000000	0.050492
3806.000000	0.050637
3805.000000	0.050928
3804.000000	0.051397
3803.000000	0.051840
3802.000000	0.052159
3801.000000	0.052490
3800.000000	0.053021
3799.000000	0.053789
3798.000000	0.054588
3797.000000	0.055243
3796.000000	0.055849
3795.000000	0.056544
3794.000000	0.057315
3793.000000	0.058049
3792.000000	0.058687
3791.000000	0.059295
3790.000000	0.059936
3789.000000	0.060587
3788.000000	0.061210
3787.000000	0.061800
3786.000000	0.062360
3785.000000	0.062868
3784.000000	0.063334
3783.000000	0.063828
3782.000000	0.064403
3781.000000	0.065008
3780.000000	0.065554
3779.000000	0.066040
3778.000000	0.066545
3777.000000	0.067129
3776.000000	0.067758
3775.000000	0.068373
3774.000000	0.069000
3773.000000	0.069693
3772.000000	0.070420
3771.000000	0.071077
3770.000000	0.071648
3769.000000	0.072248
3768.000000	0.072974
3767.000000	0.073757
3766.000000	0.074455
3765.000000	0.075060
3764.000000	0.075707
3763.000000	0.076486
3762.000000	0.077313
3761.000000	0.078056
3760.000000	0.078722
3759.000000	0.079402
3758.000000	0.080088
3757.000000	0.080693
3756.000000	0.081200
3755.000000	0.081642
3754.000000	0.082006
3753.000000	0.082317
3752.000000	0.082733
3751.000000	0.083367
3750.000000	0.084102
3749.000000	0.084794
3748.000000	0.085576
3747.000000	0.086632
3746.000000	0.087838
3745.000000	0.088977
3744.000000	0.090055
3743.000000	0.091279
3742.000000	0.092782
3741.000000	0.094272
3740.000000	0.095464
3739.000000	0.096593
3738.000000	0.097899
3737.000000	0.099236
3736.000000	0.100351
3735.000000	0.101222
3734.000000	0.102034
3733.000000	0.102850
3732.000000	0.103595
3731.000000	0.104376
3730.000000	0.105447
3729.000000	0.106856
3728.000000	0.108398
3727.000000	0.109890
3726.000000	0.111340
3725.000000	0.112813
3724.000000	0.114260
3723.000000	0.115566
3722.000000	0.116749
3721.000000	0.117945
3720.000000	0.119234
3719.000000	0.120606
3718.000000	0.122021
3717.000000	0.123453
3716.000000	0.124899
3715.000000	0.126380
3714.000000	0.127946
3713.000000	0.129705
3712.000000	0.131731
3711.000000	0.133958
3710.000000	0.136257
3709.000000	0.138571
3708.000000	0.140941
3707.000000	0.143419
3706.000000	0.146014
3705.000000	0.148694
3704.000000	0.151400
3703.000000	0.154077
3702.000000	0.156674
3701.000000	0.159119
3700.000000	0.161361
3699.000000	0.163387
3698.000000	0.165170
3697.000000	0.166663
3696.000000	0.167905
3695.000000	0.169013
3694.000000	0.170054
3693.000000	0.171028
3692.000000	0.172017
3691.000000	0.173247
3690.000000	0.174932
3689.000000	0.177059
3688.000000	0.179426
3687.000000	0.181945
3686.000000	0.184688
3685.000000	0.187602
3684.000000	0.190544
3683.000000	0.193507
3682.000000	0.196556
3681.000000	0.199602
3680.000000	0.202477
3679.000000	0.205239
3678.000000	0.208287
3677.000000	0.212005
3676.000000	0.216297
3675.000000	0.220670
3674.000000	0.224894
3673.000000	0.229165
3672.000000	0.233603
3671.000000	0.238210
3670.000000	0.243060
3669.000000	0.248125
3668.000000	0.253235
3667.000000	0.258221
3666.000000	0.263048
3665.000000	0.267838
3664.000000	0.272720
3663.000000	0.277737
3662.000000	0.282834
3661.000000	0.287896
3660.000000	0.292869
3659.000000	0.297867
3658.000000	0.303090
3657.000000	0.308576
3656.000000	0.314105
3655.000000	0.319444
3654.000000	0.324566
3653.000000	0.329549
3652.000000	0.334548
3651.000000	0.339913
3650.000000	0.345969
3649.000000	0.352575
3648.000000	0.359136
3647.000000	0.365195
3646.000000	0.370821
3645.000000	0.376293
3644.000000	0.381698
3643.000000	0.387020
3642.000000	0.392337
3641.000000	0.397768
3640.000000	0.403338
3639.000000	0.408982
3638.000000	0.414665
3637.000000	0.420440
3636.000000	0.426338
3635.000000	0.432228
3634.000000	0.437899
3633.000000	0.443280
3632.000000	0.448594
3631.000000	0.454301
3630.000000	0.460820
3629.000000	0.468046
3628.000000	0.475352
3627.000000	0.482262
3626.000000	0.488646
3625.000000	0.494440
3624.000000	0.499714
3623.000000	0.504704
3622.000000	0.509632
3621.000000	0.514602
3620.000000	0.519596
3619.000000	0.524545
3618.000000	0.529406
3617.000000	0.534162
3616.000000	0.538813
3615.000000	0.543396
3614.000000	0.548000
3613.000000	0.552698
3612.000000	0.557526
3611.000000	0.562550
3610.000000	0.567826
3609.000000	0.573290
3608.000000	0.578774
3607.000000	0.584163
3606.000000	0.589423
3605.000000	0.594505
3604.000000	0.599393
3603.000000	0.604216
3602.000000	0.609171
3601.000000	0.614305
3600.000000	0.619497
3599.000000	0.624655
3598.000000	0.629800
3597.000000	0.634983
3596.000000	0.640232
3595.000000	0.645555
3594.000000	0.650912
3593.000000	0.656173
3592.000000	0.661225
3591.000000	0.666160
3590.000000	0.671285
3589.000000	0.676853
3588.000000	0.682836
3587.000000	0.688963
3586.000000	0.694908
3585.000000	0.700405
3584.000000	0.705343
3583.000000	0.709889
3582.000000	0.714366
3581.000000	0.718964
3580.000000	0.723687
3579.000000	0.728521
3578.000000	0.733499
3577.000000	0.738577
3576.000000	0.743648
3575.000000	0.748690
3574.000000	0.753766
3573.000000	0.758875
3572.000000	0.763948
3571.000000	0.769016
3570.000000	0.774228
3569.000000	0.779655
3568.000000	0.785199
3567.000000	0.790732
3566.000000	0.796176
3565.000000	0.801425
3564.000000	0.806362
3563.000000	0.811023
3562.000000	0.815581
3561.000000	0.820131
3560.000000	0.824650
3559.000000	0.829155
3558.000000	0.833721
3557.000000	0.838341
3556.000000	0.842948
3555.000000	0.847592
3554.000000	0.852391
3553.000000	0.857313
3552.000000	0.862177
3551.000000	0.866915
3550.000000	0.871648
3549.000000	0.876513
3548.000000	0.881558
3547.000000	0.886789
3546.000000	0.892104
3545.000000	0.897205
3544.000000	0.901792
3543.000000	0.905855
3542.000000	0.909638
3541.000000	0.913376
3540.000000	0.917224
3539.000000	0.921348
3538.000000	0.925814
3537.000000	0.930414
3536.000000	0.934813
3535.000000	0.938911
3534.000000	0.942865
3533.000000	0.946809
3532.000000	0.950766
3531.000000	0.954808
3530.000000	0.959037
3529.000000	0.963414
3528.000000	0.967820
3527.000000	0.972279
3526.000000	0.976890
3525.000000	0.981544
3524.000000	0.985946
3523.000000	0.989967
3522.000000	0.993727
3521.000000	0.997372
3520.000000	1.000972
3519.000000	1.004635
3518.000000	1.008482
3517.000000	1.012486
3516.000000	1.016516
3515.000000	1.020524
3514.000000	1.024520
3513.000000	1.028413
3512.000000	1.032096
3511.000000	1.035653
3510.000000	1.039269
3509.000000	1.042963
3508.000000	1.046629
3507.000000	1.050304
3506.000000	1.054145
3505.000000	1.058155
3504.000000	1.062146
3503.000000	1.065967
3502.000000	1.069572
3501.000000	1.072924
3500.000000	1.076044
3499.000000	1.079106
3498.000000	1.082261
3497.000000	1.085424
3496.000000	1.088428
3495.000000	1.091316
3494.000000	1.094241
3493.000000	1.097189
3492.000000	1.100043
3491.000000	1.102853
3490.000000	1.105768
3489.000000	1.108767
3488.000000	1.111699
3487.000000	1.114525
3486.000000	1.117291
3485.000000	1.119946
3484.000000	1.122459
3483.000000	1.125024
3482.000000	1.127856
3481.000000	1.130835
3480.000000	1.133625
3479.000000	1.136090
3478.000000	1.138347
3477.000000	1.140495
3476.000000	1.142575
3475.000000	1.144724
3474.000000	1.147100
3473.000000	1.149698
3472.000000	1.152448
3471.000000	1.155388
3470.000000	1.158504
3469.000000	1.161503
3468.000000	1.164032
3467.000000	1.166075
3466.000000	1.167893
3465.000000	1.169685
3464.000000	1.171547
3463.000000	1.173624
3462.000000	1.175999
3461.000000	1.178477
3460.000000	1.180781
3459.000000	1.182890
3458.000000	1.184960
3457.000000	1.187025
3456.000000	1.189040
3455.000000	1.191093
3454.000000	1.193296
3453.000000	1.195544
3452.000000	1.197671
3451.000000	1.199747
3450.000000	1.201961
3449.000000	1.204287
3448.000000	1.206541
3447.000000	1.208681
3446.000000	1.210774
3445.000000	1.212776
3444.000000	1.214608
3443.000000	1.216376
3442.000000	1.218255
3441.000000	1.220251
3440.000000	1.222308
3439.000000	1.224507
3438.000000	1.226896
3437.000000	1.229232
3436.000000	1.231163
3435.000000	1.232610
3434.000000	1.233748
3433.000000	1.234734
3432.000000	1.235687
3431.000000	1.236760
3430.000000	1.237965
3429.000000	1.239048
3428.000000	1.239792
3427.000000	1.240325
3426.000000	1.240909
3425.000000	1.241585
3424.000000	1.242271
3423.000000	1.243011
3422.000000	1.243857
3421.000000	1.244647
3420.000000	1.245195
3419.000000	1.245573
3418.000000	1.245968
3417.000000	1.246405
3416.000000	1.246846
3415.000000	1.247374
3414.000000	1.248021
3413.000000	1.248580
3412.000000	1.248854
3411.000000	1.248934
3410.000000	1.248988
3409.000000	1.248956
3408.000000	1.248723
3407.000000	1.248427
3406.000000	1.248334
3405.000000	1.248538
3404.000000	1.249014
3403.000000	1.249759
3402.000000	1.250619
3401.000000	1.251163
3400.000000	1.251031
3399.000000	1.250339
3398.000000	1.249505
3397.000000	1.248831
3396.000000	1.248461
3395.000000	1.248521
3394.000000	1.248973
3393.000000	1.249465
3392.000000	1.249592
3391.000000	1.249270
3390.000000	1.248659
3389.000000	1.247904
3388.000000	1.247149
3387.000000	1.246612
3386.000000	1.246384
3385.000000	1.246284
3384.000000	1.246126
3383.000000	1.245991
3382.000000	1.246020
3381.000000	1.246122
3380.000000	1.246121
3379.000000	1.246024
3378.000000	1.245928
3377.000000	1.245790
3376.000000	1.245541
3375.000000	1.245297
3374.000000	1.245223
3373.000000	1.245325
3372.000000	1.245531
3371.000000	1.245828
3370.000000	1.246125
3369.000000	1.246153
3368.000000	1.245725
3367.000000	1.244969
3366.000000	1.244133
3365.000000	1.243308
3364.000000	1.242517
3363.000000	1.241870
3362.000000	1.241414
3361.000000	1.240983
3360.000000	1.240409
3359.000000	1.239751
3358.000000	1.239124
3357.000000	1.238479
3356.000000	1.237750
3355.000000	1.237053
3354.000000	1.236522
3353.000000	1.236073
3352.000000	1.235509
3351.000000	1.234748
3350.000000	1.233780
3349.000000	1.232573
3348.000000	1.231199
3347.000000	1.229880
3346.000000	1.228738
3345.000000	1.227638
3344.000000	1.226407
3343.000000	1.225076
3342.000000	1.223733
3341.000000	1.222330
3340.000000	1.220799
3339.000000	1.219196
3338.000000	1.217558
3337.000000	1.215778
3336.000000	1.213789
3335.000000	1.211705
3334.000000	1.209635
3333.000000	1.207520
3332.000000	1.205289
3331.000000	1.203032
3330.000000	1.200861
3329.000000	1.198742
3328.000000	1.196619
3327.000000	1.194515
3326.000000	1.192396
3325.000000	1.190106
3324.000000	1.187591
3323.000000	1.185018
3322.000000	1.182546
3321.000000	1.180135
3320.000000	1.177715
3319.000000	1.175356
3318.000000	1.173115
3317.000000	1.170895
3316.000000	1.168599
3315.000000	1.166289
3314.000000	1.164048
3313.000000	1.161826
3312.000000	1.159578
3311.000000	1.157387
3310.000000	1.155314
3309.000000	1.153269
3308.000000	1.151154
3307.000000	1.149004
3306.000000	1.146850
3305.000000	1.144603
3304.000000	1.142208
3303.000000	1.139774
3302.000000	1.137431
3301.000000	1.135161
3300.000000	1.132917
3299.000000	1.130747
3298.000000	1.128689
3297.000000	1.126660
3296.000000	1.124571
3295.000000	1.122443
3294.000000	1.120311
3293.000000	1.118122
3292.000000	1.115851
3291.000000	1.113568
3290.000000	1.111312
3289.000000	1.109008
3288.000000	1.106607
3287.000000	1.104198
3286.000000	1.101854
3285.000000	1.099519
3284.000000	1.097127
3283.000000	1.094712
3282.000000	1.092313
3281.000000	1.089881
3280.000000	1.087384
3279.000000	1.084887
3278.000000	1.082429
3277.000000	1.079943
3276.000000	1.077370
3275.000000	1.074764
3274.000000	1.072182
3273.000000	1.069583
3272.000000	1.066925
3271.000000	1.064227
3270.000000	1.061494
3269.000000	1.058672
3268.000000	1.055762
3267.000000	1.052857
3266.000000	1.049998
3265.000000	1.047105
3264.000000	1.044130
3263.000000	1.041138
3262.000000	1.038184
3261.000000	1.035216
3260.000000	1.032186
3259.000000	1.029141
3258.000000	1.026118
3257.000000	1.023070
3256.000000	1.019958
3255.000000	1.016828
3254.000000	1.013714
3253.000000	1.010573
3252.000000	1.007378
3251.000000	1.004181
3250.000000	1.001019
3249.000000	0.997846
3248.000000	0.994622
3247.000000	0.991381
3246.000000	0.988138
3245.000000	0.984847
3244.000000	0.981492
3243.000000	0.978134
3242.000000	0.974811
3241.000000	0.971475
3240.000000	0.968096
3239.000000	0.964716
3238.000000	0.961367
3237.000000	0.958014
3236.000000	0.954632
3235.000000	0.951253
3234.000000	0.947883
3233.000000	0.944464
3232.000000	0.940966
3231.000000	0.937442
3230.000000	0.933936
3229.000000	0.930424
3228.000000	0.926877
3227.000000	0.923328
3226.000000	0.919796
3225.000000	0.916246
3224.000000	0.912661
3223.000000	0.909075
3222.000000	0.905504
3221.000000	0.901911
3220.000000	0.898270
3219.000000	0.894613
3218.000000	0.890955
3217.000000	0.887264
3216.000000	0.883530
3215.000000	0.879796
3214.000000	0.876082
3213.000000	0.872353
3212.000000	0.868583
3211.000000	0.864803
3210.000000	0.861032
3209.000000	0.857237
3208.000000	0.853397
3207.000000	0.849544
3206.000000	0.845701
3205.000000	0.841855
3204.000000	0.837998
3203.000000	0.834155
3202.000000	0.830329
3201.000000	0.826482
3200.000000	0.822595
3199.000000	0.818692
3198.000000	0.814785
3197.000000	0.810854
3196.000000	0.806900
3195.000000	0.802962
3194.000000	0.799060
3193.000000	0.795167
3192.000000	0.791264
3191.000000	0.787369
3190.000000	0.783488
3189.000000	0.779598
3188.000000	0.775694
3187.000000	0.771799
3186.000000	0.767922
3185.000000	0.764034
3184.000000	0.760126
3183.000000	0.756223
3182.000000	0.752338
3181.000000	0.748450
3180.000000	0.744551
3179.000000	0.740657
3178.000000	0.736775
3177.000000	0.732886
3176.000000	0.728988
3175.000000	0.725110
3174.000000	0.721264
3173.000000	0.717432
3172.000000	0.713603
3171.000000	0.709788
3170.000000	0.705985
3169.000000	0.702169
3168.000000	0.698337
3167.000000	0.694518
3166.000000	0.690730
3165.000000	0.686957
3164.000000	0.683187
3163.000000	0.679429
3162.000000	0.675690
3161.000000	0.671956
3160.000000	0.668224
3159.000000	0.664510
3158.000000	0.660823
3157.000000	0.657151
3156.000000	0.653494
3155.000000	0.649870
3154.000000	0.646271
3153.000000	0.642660
3152.000000	0.639007
3151.000000	0.635326
3150.000000	0.631642
3149.000000	0.627972
3148.000000	0.624330
3147.000000	0.620727
3146.000000	0.617157
3145.000000	0.613601
3144.000000	0.610056
3143.000000	0.606543
3142.000000	0.603074
3141.000000	0.599627
3140.000000	0.596180
3139.000000	0.592720
3138.000000	0.589247
3137.000000	0.585767
3136.000000	0.582305
3135.000000	0.578888
3134.000000	0.575514
3133.000000	0.572161
3132.000000	0.568817
3131.000000	0.565494
3130.000000	0.562201
3129.000000	0.558920
3128.000000	0.555645
3127.000000	0.552387
3126.000000	0.549163
3125.000000	0.545974
3124.000000	0.542820
3123.000000	0.539708
3122.000000	0.536638
3121.000000	0.533590
3120.000000	0.530550
3119.000000	0.527514
3118.000000	0.524483
3117.000000	0.521454
3116.000000	0.518426
3115.000000	0.515409
3114.000000	0.512416
3113.000000	0.509459
3112.000000	0.506550
3111.000000	0.503700
3110.000000	0.500903
3109.000000	0.498130
3108.000000	0.495359
3107.000000	0.492591
3106.000000	0.489846
3105.000000	0.487140
3104.000000	0.484482
3103.000000	0.481868
3102.000000	0.479285
3101.000000	0.476716
3100.000000	0.474160
3099.000000	0.471630
3098.000000	0.469130
3097.000000	0.466652
3096.000000	0.464187
3095.000000	0.461741
3094.000000	0.459323
3093.000000	0.456945
3092.000000	0.454610
3091.000000	0.452316
3090.000000	0.450048
3089.000000	0.447793
3088.000000	0.445552
3087.000000	0.443338
3086.000000	0.441158
3085.000000	0.439002
3084.000000	0.436861
3083.000000	0.434732
3082.000000	0.432617
3081.000000	0.430514
3080.000000	0.428419
3079.000000	0.426328
3078.000000	0.424240
3077.000000	0.422153
3076.000000	0.420069
3075.000000	0.417997
3074.000000	0.415942
3073.000000	0.413906
3072.000000	0.411885
3071.000000	0.409875
3070.000000	0.407870
3069.000000	0.405859
3068.000000	0.403827
3067.000000	0.401755
3066.000000	0.399628
3065.000000	0.397449
3064.000000	0.395233
3063.000000	0.392998
3062.000000	0.390754
3061.000000	0.388499
3060.000000	0.386230
3059.000000	0.383949
3058.000000	0.381659
3057.000000	0.379355
3056.000000	0.377037
3055.000000	0.374713
3054.000000	0.372396
3053.000000	0.370103
3052.000000	0.367835
3051.000000	0.365584
3050.000000	0.363339
3049.000000	0.361093
3048.000000	0.358855
3047.000000	0.356637
3046.000000	0.354451
3045.000000	0.352299
3044.000000	0.350175
3043.000000	0.348071
3042.000000	0.345986
3041.000000	0.343920
3040.000000	0.341873
3039.000000	0.339850
3038.000000	0.337859
3037.000000	0.335907
3036.000000	0.333995
3035.000000	0.332118
3034.000000	0.330270
3033.000000	0.328443
3032.000000	0.326631
3031.000000	0.324832
3030.000000	0.323054
3029.000000	0.321313
3028.000000	0.319614
3027.000000	0.317956
3026.000000	0.316336
3025.000000	0.314753
3024.000000	0.313211
3023.000000	0.311709
3022.000000	0.310252
3021.000000	0.308848
3020.000000	0.307503
3019.000000	0.306217
3018.000000	0.304987
3017.000000	0.303818
3016.000000	0.302711
3015.000000	0.301664
3014.000000	0.300671
3013.000000	0.299726
3012.000000	0.298819
3011.000000	0.297949
3010.000000	0.297125
3009.000000	0.296362
3008.000000	0.295667
3007.000000	0.295039
3006.000000	0.294480
3005.000000	0.293992
3004.000000	0.293577
3003.000000	0.293235
3002.000000	0.292977
3001.000000	0.292814
3000.000000	0.292755
2999.000000	0.292809
2998.000000	0.292987
2997.000000	0.293302
2996.000000	0.293758
2995.000000	0.294360
2994.000000	0.295120
2993.000000	0.296046
2992.000000	0.297140
2991.000000	0.298397
2990.000000	0.299818
2989.000000	0.301408
2988.000000	0.303163
2987.000000	0.305069
2986.000000	0.307113
2985.000000	0.309291
2984.000000	0.311600
2983.000000	0.314034
2982.000000	0.316586
2981.000000	0.319249
2980.000000	0.322013
2979.000000	0.324870
2978.000000	0.327821
2977.000000	0.330872
2976.000000	0.334020
2975.000000	0.337253
2974.000000	0.340558
2973.000000	0.343919
2972.000000	0.347326
2971.000000	0.350766
2970.000000	0.354231
2969.000000	0.357711
2968.000000	0.361191
2967.000000	0.364654
2966.000000	0.368096
2965.000000	0.371521
2964.000000	0.374938
2963.000000	0.378353
2962.000000	0.381769
2961.000000	0.385189
2960.000000	0.388618
2959.000000	0.392062
2958.000000	0.395531
2957.000000	0.399036
2956.000000	0.402589
2955.000000	0.406203
2954.000000	0.409895
2953.000000	0.413686
2952.000000	0.417601
2951.000000	0.421654
2950.000000	0.425851
2949.000000	0.430184
2948.000000	0.434636
2947.000000	0.439181
2946.000000	0.443785
2945.000000	0.448403
2944.000000	0.452987
2943.000000	0.457485
2942.000000	0.461855
2941.000000	0.466060
2940.000000	0.470075
2939.000000	0.473878
2938.000000	0.477445
2937.000000	0.480758
2936.000000	0.483807
2935.000000	0.486589
2934.000000	0.489094
2933.000000	0.491311
2932.000000	0.493241
2931.000000	0.494887
2930.000000	0.496243
2929.000000	0.497292
2928.000000	0.498026
2927.000000	0.498444
2926.000000	0.498543
2925.000000	0.498310
2924.000000	0.497736
2923.000000	0.496803
2922.000000	0.495472
2921.000000	0.493661
2920.000000	0.491244
2919.000000	0.488058
2918.000000	0.483940
2917.000000	0.478816
2916.000000	0.472782
2915.000000	0.466112
2914.000000	0.459184
2913.000000	0.452375
2912.000000	0.445977
2911.000000	0.440148
2910.000000	0.434926
2909.000000	0.430269
2908.000000	0.426102
2907.000000	0.422344
2906.000000	0.418924
2905.000000	0.415778
2904.000000	0.412856
2903.000000	0.410113
2902.000000	0.407505
2901.000000	0.404998
2900.000000	0.402559
2899.000000	0.400164
2898.000000	0.397793
2897.000000	0.395437
2896.000000	0.393092
2895.000000	0.390752
2894.000000	0.388410
2893.000000	0.386056
2892.000000	0.383680
2891.000000	0.381273
2890.000000	0.378830
2889.000000	0.376348
2888.000000	0.373822
2887.000000	0.371253
2886.000000	0.368641
2885.000000	0.365992
2884.000000	0.363309
2883.000000	0.360591
2882.000000	0.357840
2881.000000	0.355057
2880.000000	0.352245
2879.000000	0.349401
2878.000000	0.346525
2877.000000	0.343617
2876.000000	0.340679
2875.000000	0.337701
2874.000000	0.334673
2873.000000	0.331586
2872.000000	0.328434
2871.000000	0.325223
2870.000000	0.321984
2869.000000	0.318773
2868.000000	0.315650
2867.000000	0.312672
2866.000000	0.309896
2865.000000	0.307380
2864.000000	0.305173
2863.000000	0.303309
2862.000000	0.301812
2861.000000	0.300689
2860.000000	0.299924
2859.000000	0.299477
2858.000000	0.299297
2857.000000	0.299324
2856.000000	0.299486
2855.000000	0.299686
2854.000000	0.299776
2853.000000	0.299520
2852.000000	0.298550
2851.000000	0.296438
2850.000000	0.292858
2849.000000	0.287760
2848.000000	0.281435
2847.000000	0.274404
2846.000000	0.267228
2845.000000	0.260338
2844.000000	0.253962
2843.000000	0.248152
2842.000000	0.242871
2841.000000	0.238052
2840.000000	0.233616
2839.000000	0.229489
2838.000000	0.225612
2837.000000	0.221939
2836.000000	0.218434
2835.000000	0.215067
2834.000000	0.211830
2833.000000	0.208727
2832.000000	0.205756
2831.000000	0.202901
2830.000000	0.200158
2829.000000	0.197527
2828.000000	0.195001
2827.000000	0.192567
2826.000000	0.190218
2825.000000	0.187959
2824.000000	0.185783
2823.000000	0.183681
2822.000000	0.181650
2821.000000	0.179693
2820.000000	0.177803
2819.000000	0.175968
2818.000000	0.174184
2817.000000	0.172458
2816.000000	0.170787
2815.000000	0.169160
2814.000000	0.167574
2813.000000	0.166035
2812.000000	0.164542
2811.000000	0.163085
2810.000000	0.161665
2809.000000	0.160289
2808.000000	0.158953
2807.000000	0.157646
2806.000000	0.156366
2805.000000	0.155121
2804.000000	0.153907
2803.000000	0.152714
2802.000000	0.151544
2801.000000	0.150406
2800.000000	0.149300
2799.000000	0.148217
2798.000000	0.147156
2797.000000	0.146126
2796.000000	0.145124
2795.000000	0.144137
2794.000000	0.143166
2793.000000	0.142223
2792.000000	0.141308
2791.000000	0.140415
2790.000000	0.139546
2789.000000	0.138715
2788.000000	0.137916
2787.000000	0.137131
2786.000000	0.136357
2785.000000	0.135606
2784.000000	0.134881
2783.000000	0.134177
2782.000000	0.133493
2781.000000	0.132841
2780.000000	0.132217
2779.000000	0.131608
2778.000000	0.131012
2777.000000	0.130441
2776.000000	0.129901
2775.000000	0.129389
2774.000000	0.128908
2773.000000	0.128462
2772.000000	0.128037
2771.000000	0.127600
2770.000000	0.127133
2769.000000	0.126629
2768.000000	0.126081
2767.000000	0.125484
2766.000000	0.124852
2765.000000	0.124214
2764.000000	0.123587
2763.000000	0.122969
2762.000000	0.122365
2761.000000	0.121786
2760.000000	0.121233
2759.000000	0.120693
2758.000000	0.120167
2757.000000	0.119667
2756.000000	0.119193
2755.000000	0.118732
2754.000000	0.118282
2753.000000	0.117848
2752.000000	0.117424
2751.000000	0.116996
2750.000000	0.116563
2749.000000	0.116141
2748.000000	0.115735
2747.000000	0.115338
2746.000000	0.114948
2745.000000	0.114568
2744.000000	0.114191
2743.000000	0.113805
2742.000000	0.113411
2741.000000	0.113022
2740.000000	0.112634
2739.000000	0.112239
2738.000000	0.111838
2737.000000	0.111446
2736.000000	0.111058
2735.000000	0.110657
2734.000000	0.110240
2733.000000	0.109822
2732.000000	0.109406
2731.000000	0.108984
2730.000000	0.108554
2729.000000	0.108126
2728.000000	0.107699
2727.000000	0.107258
2726.000000	0.106802
2725.000000	0.106342
2724.000000	0.105877
2723.000000	0.105403
2722.000000	0.104920
2721.000000	0.104440
2720.000000	0.103960
2719.000000	0.103463
2718.000000	0.102950
2717.000000	0.102434
2716.000000	0.101914
2715.000000	0.101381
2714.000000	0.100835
2713.000000	0.100292
2712.000000	0.099755
2711.000000	0.099212
2710.000000	0.098660
2709.000000	0.098109
2708.000000	0.097557
2707.000000	0.096993
2706.000000	0.096425
2705.000000	0.095869
2704.000000	0.095328
2703.000000	0.094790
2702.000000	0.094253
2701.000000	0.093726
2700.000000	0.093207
2699.000000	0.092686
2698.000000	0.092163
2697.000000	0.091654
2696.000000	0.091160
2695.000000	0.090669
2694.000000	0.090179
2693.000000	0.089699
2692.000000	0.089225
2691.000000	0.088748
2690.000000	0.088270
2689.000000	0.087804
2688.000000	0.087350
2687.000000	0.086894
2686.000000	0.086437
2685.000000	0.085988
2684.000000	0.085546
2683.000000	0.085098
2682.000000	0.084648
2681.000000	0.084211
2680.000000	0.083786
2679.000000	0.083360
2678.000000	0.082928
2677.000000	0.082499
2676.000000	0.082070
2675.000000	0.081630
2674.000000	0.081185
2673.000000	0.080751
2672.000000	0.080328
2671.000000	0.079903
2670.000000	0.079474
2669.000000	0.079052
2668.000000	0.078632
2667.000000	0.078200
2666.000000	0.077757
2665.000000	0.077323
2664.000000	0.076901
2663.000000	0.076480
2662.000000	0.076062
2661.000000	0.075654
2660.000000	0.075250
2659.000000	0.074833
2658.000000	0.074405
2657.000000	0.073979
2656.000000	0.073559
2655.000000	0.073136
2654.000000	0.072717
2653.000000	0.072314
2652.000000	0.071918
2651.000000	0.071508
2650.000000	0.071080
2649.000000	0.070647
2648.000000	0.070213
2647.000000	0.069767
2646.000000	0.069318
2645.000000	0.068884
2644.000000	0.068465
2643.000000	0.068040
2642.000000	0.067602
2641.000000	0.067159
2640.000000	0.066704
2639.000000	0.066231
2638.000000	0.065747
2637.000000	0.065277
2636.000000	0.064822
2635.000000	0.064368
2634.000000	0.063911
2633.000000	0.063459
2632.000000	0.063003
2631.000000	0.062530
2630.000000	0.062046
2629.000000	0.061574
2628.000000	0.061120
2627.000000	0.060673
2626.000000	0.060234
2625.000000	0.059810
2624.000000	0.059394
2623.000000	0.058966
2622.000000	0.058528
2621.000000	0.058097
2620.000000	0.057681
2619.000000	0.057271
2618.000000	0.056872
2617.000000	0.056495
2616.000000	0.056131
2615.000000	0.055761
2614.000000	0.055379
2613.000000	0.055002
2612.000000	0.054632
2611.000000	0.054262
2610.000000	0.053899
2609.000000	0.053558
2608.000000	0.053235
2607.000000	0.052910
2606.000000	0.052580
2605.000000	0.052255
2604.000000	0.051936
2603.000000	0.051610
2602.000000	0.051283
2601.000000	0.050972
2600.000000	0.050677
2599.000000	0.050381
2598.000000	0.050081
2597.000000	0.049791
2596.000000	0.049507
2595.000000	0.049216
2594.000000	0.048920
2593.000000	0.048638
2592.000000	0.048366
2591.000000	0.048091
2590.000000	0.047812
2589.000000	0.047542
2588.000000	0.047276
2587.000000	0.047002
2586.000000	0.046723
2585.000000	0.046457
2584.000000	0.046199
2583.000000	0.045932
2582.000000	0.045657
2581.000000	0.045390
2580.000000	0.045131
2579.000000	0.044868
2578.000000	0.044599
2577.000000	0.044342
2576.000000	0.044093
2575.000000	0.043835
2574.000000	0.043568
2573.000000	0.043302
2572.000000	0.043038
2571.000000	0.042763
2570.000000	0.042485
2569.000000	0.042225
2568.000000	0.041979
2567.000000	0.041726
2566.000000	0.041461
2565.000000	0.041198
2564.000000	0.040935
2563.000000	0.040661
2562.000000	0.040382
2561.000000	0.040117
2560.000000	0.039864
2559.000000	0.039609
2558.000000	0.039350
2557.000000	0.039099
2556.000000	0.038848
2555.000000	0.038580
2554.000000	0.038302
2553.000000	0.038036
2552.000000	0.037789
2551.000000	0.037545
2550.000000	0.037303
2549.000000	0.037072
2548.000000	0.036843
2547.000000	0.036596
2546.000000	0.036331
2545.000000	0.036071
2544.000000	0.035821
2543.000000	0.035572
2542.000000	0.035326
2541.000000	0.035095
2540.000000	0.034868
2539.000000	0.034625
2538.000000	0.034365
2537.000000	0.034108
2536.000000	0.033855
2535.000000	0.033596
2534.000000	0.033336
2533.000000	0.033095
2532.000000	0.032866
2531.000000	0.032628
2530.000000	0.032377
2529.000000	0.032128
2528.000000	0.031887
2527.000000	0.031640
2526.000000	0.031392
2525.000000	0.031162
2524.000000	0.030946
2523.000000	0.030726
2522.000000	0.030504
2521.000000	0.030290
2520.000000	0.030084
2519.000000	0.029870
2518.000000	0.029656
2517.000000	0.029461
2516.000000	0.029281
2515.000000	0.029095
2514.000000	0.028902
2513.000000	0.028719
2512.000000	0.028542
2511.000000	0.028355
2510.000000	0.028162
2509.000000	0.027984
2508.000000	0.027823
2507.000000	0.027660
2506.000000	0.027494
2505.000000	0.027334
2504.000000	0.027170
2503.000000	0.026986
2502.000000	0.026784
2501.000000	0.026586
2500.000000	0.026391
2499.000000	0.026180
2498.000000	0.025952
2497.000000	0.025727
2496.000000	0.025501
2495.000000	0.025258
2494.000000	0.024999
2493.000000	0.024746
2492.000000	0.024502
2491.000000	0.024256
2490.000000	0.024016
2489.000000	0.023795
2488.000000	0.023588
2487.000000	0.023371
2486.000000	0.023143
2485.000000	0.022920
2484.000000	0.022702
2483.000000	0.022473
2482.000000	0.022241
2481.000000	0.022027
2480.000000	0.021828
2479.000000	0.021618
2478.000000	0.021396
2477.000000	0.021181
2476.000000	0.020970
2475.000000	0.020748
2474.000000	0.020518
2473.000000	0.020299
2472.000000	0.020094
2471.000000	0.019885
2470.000000	0.019673
2469.000000	0.019473
2468.000000	0.019278
2467.000000	0.019071
2466.000000	0.018855
2465.000000	0.018651
2464.000000	0.018458
2463.000000	0.018255
2462.000000	0.018046
2461.000000	0.017851
2460.000000	0.017666
2459.000000	0.017471
2458.000000	0.017266
2457.000000	0.017070
2456.000000	0.016879
2455.000000	0.016677
2454.000000	0.016466
2453.000000	0.016267
2452.000000	0.016076
2451.000000	0.015875
2450.000000	0.015669
2449.000000	0.015475
2448.000000	0.015290
2447.000000	0.015091
2446.000000	0.014881
2445.000000	0.014681
2444.000000	0.014490
2443.000000	0.014289
2442.000000	0.014081
2441.000000	0.013885
2440.000000	0.013697
2439.000000	0.013499
2438.000000	0.013293
2437.000000	0.013095
2436.000000	0.012903
2435.000000	0.012695
2434.000000	0.012476
2433.000000	0.012268
2432.000000	0.012070
2431.000000	0.011864
2430.000000	0.011652
2429.000000	0.011454
2428.000000	0.011265
2427.000000	0.011064
2426.000000	0.010851
2425.000000	0.010649
2424.000000	0.010456
2423.000000	0.010258
2422.000000	0.010057
2421.000000	0.009871
2420.000000	0.009694
2419.000000	0.009506
2418.000000	0.009310
2417.000000	0.009129
2416.000000	0.008963
2415.000000	0.008792
2414.000000	0.008620
2413.000000	0.008467
2412.000000	0.008327
2411.000000	0.008174
2410.000000	0.008010
2409.000000	0.007859
2408.000000	0.007721
2407.000000	0.007581
2406.000000	0.007440
2405.000000	0.007316
2404.000000	0.007200
2403.000000	0.007066
2402.000000	0.006915
2401.000000	0.006769
2400.000000	0.006627
2399.000000	0.006470
2398.000000	0.006307
2397.000000	0.006159
2396.000000	0.006021
2395.000000	0.005867
2394.000000	0.005695
2393.000000	0.005529
2392.000000	0.005373
2391.000000	0.005212
2390.000000	0.005054
2389.000000	0.004918
2388.000000	0.004793
2387.000000	0.004651
2386.000000	0.004490
2385.000000	0.004329
2384.000000	0.004168
2383.000000	0.003992
2382.000000	0.003818
2381.000000	0.003671
2380.000000	0.003550
2379.000000	0.003429
2378.000000	0.003303
2377.000000	0.003192
2376.000000	0.003090
2375.000000	0.002971
2374.000000	0.002845
2373.000000	0.002745
2372.000000	0.002671
2371.000000	0.002590
2370.000000	0.002496
2369.000000	0.002415
2368.000000	0.002339
2367.000000	0.002227
2366.000000	0.002093
2365.000000	0.001992
2364.000000	0.001911
2363.000000	0.001812
2362.000000	0.001720
2361.000000	0.001653
2360.000000	0.001600
2359.000000	0.001520
2358.000000	0.001417
2357.000000	0.001355
2356.000000	0.001316
2355.000000	0.001274
2354.000000	0.001216
2353.000000	0.001127
2352.000000	0.000935
2351.000000	0.000575
2350.000000	0.000230
2349.000000	0.000136
2348.000000	0.000362
2347.000000	0.000730
2346.000000	0.000956
2345.000000	0.000968
2344.000000	0.000839
2343.000000	0.000723
2342.000000	0.000675
2341.000000	0.000657
2340.000000	0.000657
2339.000000	0.000642
2338.000000	0.000637
2337.000000	0.000658
2336.000000	0.000695
2335.000000	0.000712
2334.000000	0.000714
2333.000000	0.000728
2332.000000	0.000757
2331.000000	0.000740
2330.000000	0.000714
2329.000000	0.000717
2328.000000	0.000763
2327.000000	0.000837
2326.000000	0.000895
2325.000000	0.000972
2324.000000	0.001010
2323.000000	0.001007
2322.000000	0.000982
2321.000000	0.000992
2320.000000	0.001050
2319.000000	0.001107
2318.000000	0.001169
2317.000000	0.001239
2316.000000	0.001317
2315.000000	0.001356
2314.000000	0.001364
2313.000000	0.001380
2312.000000	0.001419
2311.000000	0.001467
2310.000000	0.001518
2309.000000	0.001594
2308.000000	0.001677
2307.000000	0.001745
2306.000000	0.001796
2305.000000	0.001865
2304.000000	0.001951
2303.000000	0.002032
2302.000000	0.002104
2301.000000	0.002189
2300.000000	0.002276
2299.000000	0.002340
2298.000000	0.002382
2297.000000	0.002431
2296.000000	0.002491
2295.000000	0.002543
2294.000000	0.002587
2293.000000	0.002652
2292.000000	0.002726
2291.000000	0.002780
2290.000000	0.002806
2289.000000	0.002831
2288.000000	0.002860
2287.000000	0.002876
2286.000000	0.002887
2285.000000	0.002920
2284.000000	0.002972
2283.000000	0.003013
2282.000000	0.003040
2281.000000	0.003074
2280.000000	0.003110
2279.000000	0.003127
2278.000000	0.003135
2277.000000	0.003166
2276.000000	0.003222
2275.000000	0.003274
2274.000000	0.003317
2273.000000	0.003370
2272.000000	0.003427
2271.000000	0.003467
2270.000000	0.003498
2269.000000	0.003552
2268.000000	0.003627
2267.000000	0.003693
2266.000000	0.003751
2265.000000	0.003822
2264.000000	0.003901
2263.000000	0.003960
2262.000000	0.004006
2261.000000	0.004071
2260.000000	0.004157
2259.000000	0.004239
2258.000000	0.004312
2257.000000	0.004399
2256.000000	0.004493
2255.000000	0.004567
2254.000000	0.004628
2253.000000	0.004703
2252.000000	0.004794
2251.000000	0.004876
2250.000000	0.004951
2249.000000	0.005045
2248.000000	0.005149
2247.000000	0.005234
2246.000000	0.005301
2245.000000	0.005384
2244.000000	0.005483
2243.000000	0.005574
2242.000000	0.005658
2241.000000	0.005759
2240.000000	0.005873
2239.000000	0.005970
2238.000000	0.006051
2237.000000	0.006141
2236.000000	0.006241
2235.000000	0.006329
2234.000000	0.006410
2233.000000	0.006511
2232.000000	0.006623
2231.000000	0.006710
2230.000000	0.006771
2229.000000	0.006834
2228.000000	0.006900
2227.000000	0.006943
2226.000000	0.006970
2225.000000	0.007013
2224.000000	0.007071
2223.000000	0.007116
2222.000000	0.007147
2221.000000	0.007194
2220.000000	0.007254
2219.000000	0.007306
2218.000000	0.007353
2217.000000	0.007424
2216.000000	0.007510
2215.000000	0.007580
2214.000000	0.007638
2213.000000	0.007713
2212.000000	0.007806
2211.000000	0.007888
2210.000000	0.007964
2209.000000	0.008063
2208.000000	0.008178
2207.000000	0.008277
2206.000000	0.008356
2205.000000	0.008444
2204.000000	0.008543
2203.000000	0.008633
2202.000000	0.008722
2201.000000	0.008840
2200.000000	0.008977
2199.000000	0.009099
2198.000000	0.009201
2197.000000	0.009312
2196.000000	0.009432
2195.000000	0.009537
2194.000000	0.009635
2193.000000	0.009765
2192.000000	0.009925
2191.000000	0.010078
2190.000000	0.010216
2189.000000	0.010359
2188.000000	0.010504
2187.000000	0.010627
2186.000000	0.010740
2185.000000	0.010882
2184.000000	0.011056
2183.000000	0.011229
2182.000000	0.011396
2181.000000	0.011576
2180.000000	0.011758
2179.000000	0.011909
2178.000000	0.012038
2177.000000	0.012186
2176.000000	0.012361
2175.000000	0.012536
2174.000000	0.012709
2173.000000	0.012897
2172.000000	0.013090
2171.000000	0.013250
2170.000000	0.013380
2169.000000	0.013518
2168.000000	0.013670
2167.000000	0.013814
2166.000000	0.013955
2165.000000	0.014120
2164.000000	0.014294
2163.000000	0.014433
2162.000000	0.014534
2161.000000	0.014634
2160.000000	0.014739
2159.000000	0.014828
2158.000000	0.014911
2157.000000	0.015017
2156.000000	0.015139
2155.000000	0.015236
2154.000000	0.015301
2153.000000	0.015365
2152.000000	0.015430
2151.000000	0.015475
2150.000000	0.015512
2149.000000	0.015577
2148.000000	0.015664
2147.000000	0.015731
2146.000000	0.015770
2145.000000	0.015812
2144.000000	0.015858
2143.000000	0.015882
2142.000000	0.015895
2141.000000	0.015935
2140.000000	0.016001
2139.000000	0.016055
2138.000000	0.016092
2137.000000	0.016134
2136.000000	0.016173
2135.000000	0.016179
2134.000000	0.016163
2133.000000	0.016171
2132.000000	0.016205
2131.000000	0.016226
2130.000000	0.016232
2129.000000	0.016249
2128.000000	0.016275
2127.000000	0.016275
2126.000000	0.016256
2125.000000	0.016258
2124.000000	0.016282
2123.000000	0.016293
2122.000000	0.016289
2121.000000	0.016300
2120.000000	0.016319
2119.000000	0.016312
2118.000000	0.016285
2117.000000	0.016279
2116.000000	0.016296
2115.000000	0.016295
2114.000000	0.016273
2113.000000	0.016266
2112.000000	0.016272
2111.000000	0.016255
2110.000000	0.016217
2109.000000	0.016195
2108.000000	0.016192
2107.000000	0.016176
2106.000000	0.016150
2105.000000	0.016147
2104.000000	0.016161
2103.000000	0.016150
2102.000000	0.016114
2101.000000	0.016091
2100.000000	0.016084
2099.000000	0.016060
2098.000000	0.016023
2097.000000	0.016012
2096.000000	0.016019
2095.000000	0.016004
2094.000000	0.015968
2093.000000	0.015952
2092.000000	0.015960
2091.000000	0.015953
2090.000000	0.015924
2089.000000	0.015904
2088.000000	0.015898
2087.000000	0.015874
2086.000000	0.015838
2085.000000	0.015822
2084.000000	0.015824
2083.000000	0.015808
2082.000000	0.015781
2081.000000	0.015781
2080.000000	0.015806
2079.000000	0.015814
2078.000000	0.015802
2077.000000	0.015803
2076.000000	0.015817
2075.000000	0.015810
2074.000000	0.015788
2073.000000	0.015791
2072.000000	0.015816
2071.000000	0.015821
2070.000000	0.015810
2069.000000	0.015824
2068.000000	0.015865
2067.000000	0.015893
2066.000000	0.015896
2065.000000	0.015893
2064.000000	0.015877
2063.000000	0.015828
2062.000000	0.015777
2061.000000	0.015771
2060.000000	0.015790
2059.000000	0.015774
2058.000000	0.015718
2057.000000	0.015678
2056.000000	0.015664
2055.000000	0.015638
2054.000000	0.015595
2053.000000	0.015568
2052.000000	0.015548
2051.000000	0.015493
2050.000000	0.015404
2049.000000	0.015330
2048.000000	0.015276
2047.000000	0.015205
2046.000000	0.015122
2045.000000	0.015067
2044.000000	0.015036
2043.000000	0.014972
2042.000000	0.014859
2041.000000	0.014728
2040.000000	0.014584
2039.000000	0.014412
2038.000000	0.014239
2037.000000	0.014111
2036.000000	0.014006
2035.000000	0.013865
2034.000000	0.013683
2033.000000	0.013505
2032.000000	0.013339
2031.000000	0.013148
2030.000000	0.012943
2029.000000	0.012766
2028.000000	0.012612
2027.000000	0.012431
2026.000000	0.012217
2025.000000	0.012016
2024.000000	0.011825
2023.000000	0.011610
2022.000000	0.011388
2021.000000	0.011221
2020.000000	0.011113
2019.000000	0.011003
2018.000000	0.010851
2017.000000	0.010658
2016.000000	0.010416
2015.000000	0.010125
2014.000000	0.009853
2013.000000	0.009676
2012.000000	0.009570
2011.000000	0.009455
2010.000000	0.009311
2009.000000	0.009180
2008.000000	0.009060
2007.000000	0.008908
2006.000000	0.008734
2005.000000	0.008595
2004.000000	0.008496
2003.000000	0.008387
2002.000000	0.008267
2001.000000	0.008173
2000.000000	0.008103
1999.000000	0.008002
1998.000000	0.007873
1997.000000	0.007778
1996.000000	0.007740
1995.000000	0.007731
1994.000000	0.007741
1993.000000	0.007758
1992.000000	0.007704
1991.000000	0.007522
1990.000000	0.007294
1989.000000	0.007169
1988.000000	0.007158
1987.000000	0.007144
1986.000000	0.007083
1985.000000	0.007037
1984.000000	0.007030
1983.000000	0.007010
1982.000000	0.006962
1981.000000	0.006932
1980.000000	0.006933
1979.000000	0.006913
1978.000000	0.006872
1977.000000	0.006865
1976.000000	0.006888
1975.000000	0.006878
1974.000000	0.006833
1973.000000	0.006816
1972.000000	0.006840
1971.000000	0.006864
1970.000000	0.006896
1969.000000	0.006985
1968.000000	0.007089
1967.000000	0.007094
1966.000000	0.006978
1965.000000	0.006843
1964.000000	0.006773
1963.000000	0.006756
1962.000000	0.006770
1961.000000	0.006819
1960.000000	0.006877
1959.000000	0.006882
1958.000000	0.006849
1957.000000	0.006849
1956.000000	0.006884
1955.000000	0.006888
1954.000000	0.006855
1953.000000	0.006850
1952.000000	0.006883
1951.000000	0.006897
1950.000000	0.006881
1949.000000	0.006886
1948.000000	0.006930
1947.000000	0.006981
1946.000000	0.007049
1945.000000	0.007176
1944.000000	0.007304
1943.000000	0.007296
1942.000000	0.007110
1941.000000	0.006858
1940.000000	0.006682
1939.000000	0.006628
1938.000000	0.006669
1937.000000	0.006760
1936.000000	0.006846
1935.000000	0.006876
1934.000000	0.006867
1933.000000	0.006877
1932.000000	0.006887
1931.000000	0.006848
1930.000000	0.006777
1929.000000	0.006746
1928.000000	0.006778
1927.000000	0.006828
1926.000000	0.006924
1925.000000	0.007117
1924.000000	0.007358
1923.000000	0.007506
1922.000000	0.007484
1921.000000	0.007381
1920.000000	0.007319
1919.000000	0.007295
1918.000000	0.007238
1917.000000	0.007157
1916.000000	0.007137
1915.000000	0.007246
1914.000000	0.007480
1913.000000	0.007773
1912.000000	0.008026
1911.000000	0.008182
1910.000000	0.008268
1909.000000	0.008327
1908.000000	0.008333
1907.000000	0.008235
1906.000000	0.008107
1905.000000	0.008045
1904.000000	0.008034
1903.000000	0.007994
1902.000000	0.007907
1901.000000	0.007853
1900.000000	0.007865
1899.000000	0.007892
1898.000000	0.007940
1897.000000	0.008051
1896.000000	0.008189
1895.000000	0.008250
1894.000000	0.008210
1893.000000	0.008173
1892.000000	0.008221
1891.000000	0.008307
1890.000000	0.008353
1889.000000	0.008345
1888.000000	0.008307
1887.000000	0.008305
1886.000000	0.008435
1885.000000	0.008696
1884.000000	0.008954
1883.000000	0.009100
1882.000000	0.009179
1881.000000	0.009311
1880.000000	0.009506
1879.000000	0.009669
1878.000000	0.009787
1877.000000	0.009938
1876.000000	0.010122
1875.000000	0.010283
1874.000000	0.010446
1873.000000	0.010686
1872.000000	0.010989
1871.000000	0.011245
1870.000000	0.011408
1869.000000	0.011536
1868.000000	0.011647
1867.000000	0.011678
1866.000000	0.011684
1865.000000	0.011829
1864.000000	0.012103
1863.000000	0.012360
1862.000000	0.012560
1861.000000	0.012775
1860.000000	0.013006
1859.000000	0.013183
1858.000000	0.013314
1857.000000	0.013488
1856.000000	0.013709
1855.000000	0.013912
1854.000000	0.014110
1853.000000	0.014384
1852.000000	0.014750
1851.000000	0.015116
1850.000000	0.015495
1849.000000	0.015949
1848.000000	0.016395
1847.000000	0.016694
1846.000000	0.016889
1845.000000	0.017140
1844.000000	0.017412
1843.000000	0.017591
1842.000000	0.017810
1841.000000	0.018309
1840.000000	0.019082
1839.000000	0.019900
1838.000000	0.020610
1837.000000	0.021226
1836.000000	0.021793
1835.000000	0.022286
1834.000000	0.022724
1833.000000	0.023217
1832.000000	0.023797
1831.000000	0.024372
1830.000000	0.024947
1829.000000	0.025595
1828.000000	0.026248
1827.000000	0.026867
1826.000000	0.027512
1825.000000	0.028189
1824.000000	0.028847
1823.000000	0.029500
1822.000000	0.030299
1821.000000	0.031327
1820.000000	0.032416
1819.000000	0.033344
1818.000000	0.034123
1817.000000	0.034911
1816.000000	0.035773
1815.000000	0.036670
1814.000000	0.037631
1813.000000	0.038742
1812.000000	0.039913
1811.000000	0.040979
1810.000000	0.041927
1809.000000	0.042872
1808.000000	0.043883
1807.000000	0.044921
1806.000000	0.046024
1805.000000	0.047298
1804.000000	0.048677
1803.000000	0.049941
1802.000000	0.051014
1801.000000	0.052081
1800.000000	0.053271
1799.000000	0.054598
1798.000000	0.056118
1797.000000	0.057838
1796.000000	0.059570
1795.000000	0.061134
1794.000000	0.062668
1793.000000	0.064437
1792.000000	0.066320
1791.000000	0.067977
1790.000000	0.069461
1789.000000	0.071241
1788.000000	0.073522
1787.000000	0.076034
1786.000000	0.078497
1785.000000	0.080889
1784.000000	0.083294
1783.000000	0.085795
1782.000000	0.088548
1781.000000	0.091722
1780.000000	0.095115
1779.000000	0.098412
1778.000000	0.101677
1777.000000	0.105155
1776.000000	0.108811
1775.000000	0.112548
1774.000000	0.116797
1773.000000	0.122124
1772.000000	0.128179
1771.000000	0.133833
1770.000000	0.138808
1769.000000	0.144049
1768.000000	0.150196
1767.000000	0.156882
1766.000000	0.163615
1765.000000	0.170511
1764.000000	0.177919
1763.000000	0.185986
1762.000000	0.194574
1761.000000	0.203344
1760.000000	0.211886
1759.000000	0.220146
1758.000000	0.228518
1757.000000	0.237318
1756.000000	0.246079
1755.000000	0.254078
1754.000000	0.261570
1753.000000	0.269458
1752.000000	0.278005
1751.000000	0.286402
1750.000000	0.293914
1749.000000	0.300660
1748.000000	0.306911
1747.000000	0.312592
1746.000000	0.317811
1745.000000	0.322854
1744.000000	0.327537
1743.000000	0.331392
1742.000000	0.334435
1741.000000	0.337235
1740.000000	0.340009
1739.000000	0.342307
1738.000000	0.343769
1737.000000	0.344662
1736.000000	0.345496
1735.000000	0.346384
1734.000000	0.347006
1733.000000	0.347187
1732.000000	0.346727
1731.000000	0.345462
1730.000000	0.343701
1729.000000	0.342072
1728.000000	0.340778
1727.000000	0.339626
1726.000000	0.338654
1725.000000	0.338004
1724.000000	0.337463
1723.000000	0.336744
1722.000000	0.335856
1721.000000	0.335012
1720.000000	0.334371
1719.000000	0.334124
1718.000000	0.334609
1717.000000	0.335709
1716.000000	0.336317
1715.000000	0.335681
1714.000000	0.334486
1713.000000	0.333831
1712.000000	0.334050
1711.000000	0.334707
1710.000000	0.335464
1709.000000	0.336417
1708.000000	0.337580
1707.000000	0.338859
1706.000000	0.340520
1705.000000	0.342692
1704.000000	0.344777
1703.000000	0.346382
1702.000000	0.348401
1701.000000	0.352030
1700.000000	0.356821
1699.000000	0.361706
1698.000000	0.366890
1697.000000	0.373204
1696.000000	0.380693
1695.000000	0.387576
1694.000000	0.392536
1693.000000	0.396649
1692.000000	0.401232
1691.000000	0.406806
1690.000000	0.413132
1689.000000	0.419471
1688.000000	0.425270
1687.000000	0.430841
1686.000000	0.437637
1685.000000	0.446855
1684.000000	0.457177
1683.000000	0.465295
1682.000000	0.470773
1681.000000	0.476577
1680.000000	0.483849
1679.000000	0.491441
1678.000000	0.498562
1677.000000	0.505992
1676.000000	0.514770
1675.000000	0.524376
1674.000000	0.533595
1673.000000	0.542339
1672.000000	0.551137
1671.000000	0.560461
1670.000000	0.570654
1669.000000	0.581518
1668.000000	0.591974
1667.000000	0.601135
1666.000000	0.609335
1665.000000	0.617653
1664.000000	0.626783
1663.000000	0.636291
1662.000000	0.645270
1661.000000	0.653538
1660.000000	0.661285
1659.000000	0.668370
1658.000000	0.674585
1657.000000	0.679951
1656.000000	0.684686
1655.000000	0.689613
1654.000000	0.696384
1653.000000	0.705588
1652.000000	0.714013
1651.000000	0.718959
1650.000000	0.721375
1649.000000	0.723114
1648.000000	0.726431
1647.000000	0.731332
1646.000000	0.735932
1645.000000	0.739512
1644.000000	0.742785
1643.000000	0.745727
1642.000000	0.748191
1641.000000	0.750888
1640.000000	0.753878
1639.000000	0.756333
1638.000000	0.758237
1637.000000	0.760872
1636.000000	0.764804
1635.000000	0.768276
1634.000000	0.770026
1633.000000	0.771393
1632.000000	0.773261
1631.000000	0.775015
1630.000000	0.776239
1629.000000	0.777278
1628.000000	0.778395
1627.000000	0.779096
1626.000000	0.779053
1625.000000	0.778873
1624.000000	0.778979
1623.000000	0.778780
1622.000000	0.777654
1621.000000	0.775930
1620.000000	0.774024
1619.000000	0.771690
1618.000000	0.768609
1617.000000	0.764836
1616.000000	0.760214
1615.000000	0.754102
1614.000000	0.746615
1613.000000	0.738798
1612.000000	0.731366
1611.000000	0.724060
1610.000000	0.716430
1609.000000	0.708686
1608.000000	0.701091
1607.000000	0.693296
1606.000000	0.684883
1605.000000	0.676038
1604.000000	0.666983
1603.000000	0.657498
1602.000000	0.647405
1601.000000	0.637002
1600.000000	0.626664
1599.000000	0.616340
1598.000000	0.605779
1597.000000	0.594961
1596.000000	0.583915
1595.000000	0.572417
1594.000000	0.560247
1593.000000	0.547527
1592.000000	0.534531
1591.000000	0.521307
1590.000000	0.507802
1589.000000	0.494193
1588.000000	0.480760
1587.000000	0.467601
1586.000000	0.454684
1585.000000	0.442095
1584.000000	0.429979
1583.000000	0.418267
1582.000000	0.406917
1581.000000	0.396080
1580.000000	0.385974
1579.000000	0.376618
1578.000000	0.367762
1577.000000	0.358856
1576.000000	0.349557
1575.000000	0.340200
1574.000000	0.331317
1573.000000	0.323223
1572.000000	0.315826
1571.000000	0.308770
1570.000000	0.301691
1569.000000	0.294796
1568.000000	0.288677
1567.000000	0.283623
1566.000000	0.279344
1565.000000	0.275282
1564.000000	0.271342
1563.000000	0.267795
1562.000000	0.264917
1561.000000	0.262515
1560.000000	0.259699
1559.000000	0.256084
1558.000000	0.252585
1557.000000	0.249101
1556.000000	0.247197
1555.000000	0.246514
1554.000000	0.245929
1553.000000	0.245137
1552.000000	0.244161
1551.000000	0.243155
1550.000000	0.242136
1549.000000	0.240995
1548.000000	0.239881
1547.000000	0.239099
1546.000000	0.238622
1545.000000	0.238077
1544.000000	0.237292
1543.000000	0.236511
1542.000000	0.236257
1541.000000	0.236993
1540.000000	0.238690
1539.000000	0.240267
1538.000000	0.240975
1537.000000	0.241457
1536.000000	0.241924
1535.000000	0.242878
1534.000000	0.244783
1533.000000	0.247145
1532.000000	0.249266
1531.000000	0.251412
1530.000000	0.254075
1529.000000	0.256972
1528.000000	0.259704
1527.000000	0.262342
1526.000000	0.265054
1525.000000	0.267804
1524.000000	0.270776
1523.000000	0.274771
1522.000000	0.280376
1521.000000	0.286513
1520.000000	0.291305
1519.000000	0.294749
1518.000000	0.298036
1517.000000	0.301384
1516.000000	0.303871
1515.000000	0.304823
1514.000000	0.304667
1513.000000	0.303832
1512.000000	0.302147
1511.000000	0.299623
1510.000000	0.296601
1509.000000	0.293238
1508.000000	0.289049
1507.000000	0.283225
1506.000000	0.275492
1505.000000	0.267237
1504.000000	0.260864
1503.000000	0.255544
1502.000000	0.249949
1501.000000	0.244074
1500.000000	0.238046
1499.000000	0.232035
1498.000000	0.226505
1497.000000	0.221792
1496.000000	0.217799
1495.000000	0.214394
1494.000000	0.211718
1493.000000	0.209951
1492.000000	0.209068
1491.000000	0.208897
1490.000000	0.209356
1489.000000	0.210460
1488.000000	0.212077
1487.000000	0.214289
1486.000000	0.217298
1485.000000	0.221164
1484.000000	0.225796
1483.000000	0.231086
1482.000000	0.237126
1481.000000	0.243861
1480.000000	0.251001
1479.000000	0.258500
1478.000000	0.266770
1477.000000	0.276083
1476.000000	0.286255
1475.000000	0.297300
1474.000000	0.309953
1473.000000	0.324602
1472.000000	0.339720
1471.000000	0.353310
1470.000000	0.365342
1469.000000	0.376578
1468.000000	0.386982
1467.000000	0.396270
1466.000000	0.404442
1465.000000	0.411507
1464.000000	0.417113
1463.000000	0.421315
1462.000000	0.424799
1461.000000	0.427951
1460.000000	0.430869
1459.000000	0.434046
1458.000000	0.438203
1457.000000	0.442815
1456.000000	0.446089
1455.000000	0.447829
1454.000000	0.449043
1453.000000	0.449891
1452.000000	0.450358
1451.000000	0.450409
1450.000000	0.450079
1449.000000	0.449449
1448.000000	0.448503
1447.000000	0.447343
1446.000000	0.446311
1445.000000	0.445700
1444.000000	0.445383
1443.000000	0.445230
1442.000000	0.445315
1441.000000	0.445673
1440.000000	0.446185
1439.000000	0.446832
1438.000000	0.447802
1437.000000	0.449092
1436.000000	0.450525
1435.000000	0.452245
1434.000000	0.454503
1433.000000	0.457078
1432.000000	0.459578
1431.000000	0.461758
1430.000000	0.463636
1429.000000	0.465266
1428.000000	0.466562
1427.000000	0.467531
1426.000000	0.468307
1425.000000	0.468869
1424.000000	0.468874
1423.000000	0.468141
1422.000000	0.466976
1421.000000	0.465695
1420.000000	0.464020
1419.000000	0.461523
1418.000000	0.458464
1417.000000	0.455334
1416.000000	0.452378
1415.000000	0.449665
1414.000000	0.447192
1413.000000	0.444852
1412.000000	0.442500
1411.000000	0.440140
1410.000000	0.437908
1409.000000	0.435873
1408.000000	0.434010
1407.000000	0.432302
1406.000000	0.430732
1405.000000	0.429234
1404.000000	0.427738
1403.000000	0.426405
1402.000000	0.425492
1401.000000	0.424965
1400.000000	0.424609
1399.000000	0.424365
1398.000000	0.424396
1397.000000	0.424856
1396.000000	0.425761
1395.000000	0.427018
1394.000000	0.428574
1393.000000	0.430566
1392.000000	0.433182
1391.000000	0.436418
1390.000000	0.440171
1389.000000	0.444389
1388.000000	0.448960
1387.000000	0.453638
1386.000000	0.458166
1385.000000	0.462485
1384.000000	0.466680
1383.000000	0.470775
1382.000000	0.474691
1381.000000	0.478304
1380.000000	0.481509
1379.000000	0.484221
1378.000000	0.486421
1377.000000	0.488152
1376.000000	0.489453
1375.000000	0.490295
1374.000000	0.490554
1373.000000	0.490128
1372.000000	0.489141
1371.000000	0.487830
1370.000000	0.486161
1369.000000	0.483874
1368.000000	0.480816
1367.000000	0.477195
1366.000000	0.473380
1365.000000	0.469510
1364.000000	0.465441
1363.000000	0.461061
1362.000000	0.456467
1361.000000	0.451885
1360.000000	0.447609
1359.000000	0.443841
1358.000000	0.440582
1357.000000	0.437694
1356.000000	0.435055
1355.000000	0.432695
1354.000000	0.430750
1353.000000	0.429299
1352.000000	0.428358
1351.000000	0.428008
1350.000000	0.428338
1349.000000	0.429342
1348.000000	0.430956
1347.000000	0.433202
1346.000000	0.436143
1345.000000	0.439721
1344.000000	0.443795
1343.000000	0.448332
1342.000000	0.453392
1341.000000	0.458924
1340.000000	0.464668
1339.000000	0.470329
1338.000000	0.475801
1337.000000	0.481181
1336.000000	0.486546
1335.000000	0.491871
1334.000000	0.497103
1333.000000	0.502153
1332.000000	0.506894
1331.000000	0.511264
1330.000000	0.515325
1329.000000	0.519164
1328.000000	0.522833
1327.000000	0.526460
1326.000000	0.530282
1325.000000	0.534482
1324.000000	0.539083
1323.000000	0.544067
1322.000000	0.549431
1321.000000	0.554975
1320.000000	0.560113
1319.000000	0.564003
1318.000000	0.565828
1317.000000	0.565001
1316.000000	0.561234
1315.000000	0.554640
1314.000000	0.545783
1313.000000	0.535429
1312.000000	0.524387
1311.000000	0.513448
1310.000000	0.503224
1309.000000	0.493962
1308.000000	0.485626
1307.000000	0.478185
1306.000000	0.471686
1305.000000	0.466072
1304.000000	0.461126
1303.000000	0.456664
1302.000000	0.452625
1301.000000	0.448985
1300.000000	0.445749
1299.000000	0.443014
1298.000000	0.440934
1297.000000	0.439569
1296.000000	0.438880
1295.000000	0.438865
1294.000000	0.439535
1293.000000	0.440820
1292.000000	0.442587
1291.000000	0.444769
1290.000000	0.447381
1289.000000	0.450351
1288.000000	0.453498
1287.000000	0.456681
1286.000000	0.459852
1285.000000	0.462953
1284.000000	0.465856
1283.000000	0.468464
1282.000000	0.470783
1281.000000	0.472864
1280.000000	0.474780
1279.000000	0.476681
1278.000000	0.478739
1277.000000	0.480980
1276.000000	0.483287
1275.000000	0.485571
1274.000000	0.487844
1273.000000	0.490084
1272.000000	0.492181
1271.000000	0.494066
1270.000000	0.495789
1269.000000	0.497382
1268.000000	0.498780
1267.000000	0.499923
1266.000000	0.500839
1265.000000	0.501537
1264.000000	0.501966
1263.000000	0.502122
1262.000000	0.502082
1261.000000	0.501876
1260.000000	0.501456
1259.000000	0.500833
1258.000000	0.500128
1257.000000	0.499418
1256.000000	0.498671
1255.000000	0.497890
1254.000000	0.497169
1253.000000	0.496565
1252.000000	0.496028
1251.000000	0.495509
1250.000000	0.495015
1249.000000	0.494503
1248.000000	0.493858
1247.000000	0.493016
1246.000000	0.492011
1245.000000	0.490845
1244.000000	0.489460
1243.000000	0.487857
1242.000000	0.486113
1241.000000	0.484240
1240.000000	0.482162
1239.000000	0.479861
1238.000000	0.477411
1237.000000	0.474826
1236.000000	0.472022
1235.000000	0.468959
1234.000000	0.465687
1233.000000	0.462222
1232.000000	0.458500
1231.000000	0.454502
1230.000000	0.450292
1229.000000	0.445910
1228.000000	0.441367
1227.000000	0.436733
1226.000000	0.432127
1225.000000	0.427599
1224.000000	0.423133
1223.000000	0.418768
1222.000000	0.414604
1221.000000	0.410675
1220.000000	0.406946
1219.000000	0.403422
1218.000000	0.400154
1217.000000	0.397144
1216.000000	0.394350
1215.000000	0.391777
1214.000000	0.389465
1213.000000	0.387402
1212.000000	0.385553
1211.000000	0.383938
1210.000000	0.382579
1209.000000	0.381396
1208.000000	0.380247
1207.000000	0.379057
1206.000000	0.377802
1205.000000	0.376410
1204.000000	0.374771
1203.000000	0.372849
1202.000000	0.370680
1201.000000	0.368275
1200.000000	0.365653
1199.000000	0.362919
1198.000000	0.360239
1197.000000	0.357741
1196.000000	0.355547
1195.000000	0.353822
1194.000000	0.352723
1193.000000	0.352305
1192.000000	0.352565
1191.000000	0.353563
1190.000000	0.355354
1189.000000	0.357915
1188.000000	0.361178
1187.000000	0.365127
1186.000000	0.369788
1185.000000	0.375120
1184.000000	0.381087
1183.000000	0.387787
1182.000000	0.395406
1181.000000	0.404062
1180.000000	0.413697
1179.000000	0.424204
1178.000000	0.435570
1177.000000	0.447864
1176.000000	0.461224
1175.000000	0.475806
1174.000000	0.491736
1173.000000	0.509022
1172.000000	0.527521
1171.000000	0.547073
1170.000000	0.567558
1169.000000	0.588770
1168.000000	0.610285
1167.000000	0.631584
1166.000000	0.652182
1165.000000	0.671604
1164.000000	0.689277
1163.000000	0.704712
1162.000000	0.717844
1161.000000	0.728820
1160.000000	0.737758
1159.000000	0.744847
1158.000000	0.750443
1157.000000	0.754862
1156.000000	0.758059
1155.000000	0.759932
1154.000000	0.760699
1153.000000	0.760638
1152.000000	0.759815
1151.000000	0.758225
1150.000000	0.756060
1149.000000	0.753501
1148.000000	0.750453
1147.000000	0.746832
1146.000000	0.742813
1145.000000	0.738594
1144.000000	0.734178
1143.000000	0.729629
1142.000000	0.725314
1141.000000	0.721626
1140.000000	0.718716
1139.000000	0.716691
1138.000000	0.715853
1137.000000	0.716435
1136.000000	0.718376
1135.000000	0.721558
1134.000000	0.726023
1133.000000	0.731825
1132.000000	0.738740
1131.000000	0.746443
1130.000000	0.754782
1129.000000	0.763617
1128.000000	0.772622
1127.000000	0.781497
1126.000000	0.790230
1125.000000	0.798863
1124.000000	0.807224
1123.000000	0.815206
1122.000000	0.823080
1121.000000	0.831185
1120.000000	0.839501
1119.000000	0.847928
1118.000000	0.856675
1117.000000	0.865969
1116.000000	0.875590
1115.000000	0.885099
1114.000000	0.894338
1113.000000	0.903233
1112.000000	0.911408
1111.000000	0.918513
1110.000000	0.924658
1109.000000	0.930065
1108.000000	0.934510
1107.000000	0.937672
1106.000000	0.939723
1105.000000	0.940946
1104.000000	0.941229
1103.000000	0.940435
1102.000000	0.938958
1101.000000	0.937367
1100.000000	0.935818
1099.000000	0.934363
1098.000000	0.933442
1097.000000	0.933520
1096.000000	0.934577
1095.000000	0.936507
1094.000000	0.939615
1093.000000	0.944252
1092.000000	0.950311
1091.000000	0.957531
1090.000000	0.966059
1089.000000	0.976068
1088.000000	0.987174
1087.000000	0.998849
1086.000000	1.011046
1085.000000	1.023832
1084.000000	1.036696
1083.000000	1.048948
1082.000000	1.060475
1081.000000	1.071339
1080.000000	1.080898
1079.000000	1.088258
1078.000000	1.093246
1077.000000	1.095979
1076.000000	1.096142
1075.000000	1.093527
1074.000000	1.088899
1073.000000	1.083397
1072.000000	1.077581
1071.000000	1.071945
1070.000000	1.067581
1069.000000	1.065505
1068.000000	1.065767
1067.000000	1.068020
1066.000000	1.072344
1065.000000	1.078846
1064.000000	1.086902
1063.000000	1.095603
1062.000000	1.104668
1061.000000	1.114048
1060.000000	1.123161
1059.000000	1.131432
1058.000000	1.139157
1057.000000	1.146817
1056.000000	1.154019
1055.000000	1.160088
1054.000000	1.165205
1053.000000	1.169899
1052.000000	1.173899
1051.000000	1.176707
1050.000000	1.178765
1049.000000	1.180795
1048.000000	1.182595
1047.000000	1.183685
1046.000000	1.184513
1045.000000	1.185882
1044.000000	1.187834
1043.000000	1.190145
1042.000000	1.193215
1041.000000	1.197424
1040.000000	1.202199
1039.000000	1.206790
1038.000000	1.211352
1037.000000	1.216200
1036.000000	1.220675
1035.000000	1.223934
1034.000000	1.226239
1033.000000	1.228260
1032.000000	1.229775
1031.000000	1.230249
1030.000000	1.230026
1029.000000	1.229633
1028.000000	1.228690
1027.000000	1.226634
1026.000000	1.223846
1025.000000	1.220915
1024.000000	1.217474
1023.000000	1.212970
1022.000000	1.207765
1021.000000	1.202343
1020.000000	1.196256
1019.000000	1.188884
1018.000000	1.180550
1017.000000	1.171802
1016.000000	1.162335
1015.000000	1.151718
1014.000000	1.140315
1013.000000	1.128655
1012.000000	1.116555
1011.000000	1.103720
1010.000000	1.090561
1009.000000	1.077552
1008.000000	1.064488
1007.000000	1.051060
1006.000000	1.037512
1005.000000	1.024141
1004.000000	1.010697
1003.000000	0.996899
1002.000000	0.982999
1001.000000	0.969255
1000.000000	0.955441
999.000000	0.941310
998.000000	0.927074
997.000000	0.912978
996.000000	0.898797
995.000000	0.884210
994.000000	0.869178
993.000000	0.853622
992.000000	0.837207
991.000000	0.819673
990.000000	0.801135
989.000000	0.781693
988.000000	0.761138
987.000000	0.739364
986.000000	0.716538
985.000000	0.692859
984.000000	0.668393
983.000000	0.643305
982.000000	0.618035
981.000000	0.592976
980.000000	0.568362
979.000000	0.544445
978.000000	0.521507
977.000000	0.499701
976.000000	0.479039
975.000000	0.459579
974.000000	0.441415
973.000000	0.424514
972.000000	0.408724
971.000000	0.393962
970.000000	0.380217
969.000000	0.367409
968.000000	0.355416
967.000000	0.344152
966.000000	0.333544
965.000000	0.323455
964.000000	0.313741
963.000000	0.304374
962.000000	0.295356
961.000000	0.286620
960.000000	0.278096
959.000000	0.269807
958.000000	0.261788
957.000000	0.253979
956.000000	0.246300
955.000000	0.238769
954.000000	0.231439
953.000000	0.224308
952.000000	0.217385
951.000000	0.210768
950.000000	0.204577
949.000000	0.198864
948.000000	0.193709
947.000000	0.189242
946.000000	0.185513
945.000000	0.182412
944.000000	0.179770
943.000000	0.177479
942.000000	0.175421
941.000000	0.173414
940.000000	0.171350
939.000000	0.169270
938.000000	0.167249
937.000000	0.165289
936.000000	0.163391
935.000000	0.161621
934.000000	0.160019
933.000000	0.158543
932.000000	0.157169
931.000000	0.155944
930.000000	0.154865
929.000000	0.153814
928.000000	0.152681
927.000000	0.151454
926.000000	0.150104
925.000000	0.148506
924.000000	0.146562
923.000000	0.144291
922.000000	0.141731
921.000000	0.138859
920.000000	0.135678
919.000000	0.132286
918.000000	0.128767
917.000000	0.125109
916.000000	0.121305
915.000000	0.117398
914.000000	0.113365
913.000000	0.109081
912.000000	0.104480
911.000000	0.099663
910.000000	0.094779
909.000000	0.089925
908.000000	0.085238
907.000000	0.080946
906.000000	0.077205
905.000000	0.074024
904.000000	0.071390
903.000000	0.069327
902.000000	0.067791
901.000000	0.066598
900.000000	0.065582
899.000000	0.064669
898.000000	0.063750
897.000000	0.062640
896.000000	0.061232
895.000000	0.059563
894.000000	0.057682
893.000000	0.055551
892.000000	0.053166
891.000000	0.050611
890.000000	0.047926
889.000000	0.045054
888.000000	0.041987
887.000000	0.038837
886.000000	0.035695
885.000000	0.032575
884.000000	0.029545
883.000000	0.026760
882.000000	0.024303
881.000000	0.022119
880.000000	0.020196
879.000000	0.018645
878.000000	0.017527
877.000000	0.016767
876.000000	0.016303
875.000000	0.016160
874.000000	0.016315
873.000000	0.016631
872.000000	0.017017
871.000000	0.017507
870.000000	0.018131
869.000000	0.018850
868.000000	0.019667
867.000000	0.020640
866.000000	0.021712
865.000000	0.022660
864.000000	0.023285
863.000000	0.023533
862.000000	0.023399
861.000000	0.022882
860.000000	0.022092
859.000000	0.021235
858.000000	0.020409
857.000000	0.019526
856.000000	0.018486
855.000000	0.017298
854.000000	0.015976
853.000000	0.014496
852.000000	0.012912
851.000000	0.011374
850.000000	0.009963
849.000000	0.008644
848.000000	0.007434
847.000000	0.006449
846.000000	0.005750
845.000000	0.005285
844.000000	0.005067
843.000000	0.005239
842.000000	0.005894
841.000000	0.006979
840.000000	0.008407
839.000000	0.010150
838.000000	0.012127
837.000000	0.014164
836.000000	0.016111
835.000000	0.017861
834.000000	0.019219
833.000000	0.019945
832.000000	0.020000
831.000000	0.019614
830.000000	0.019069
829.000000	0.018529
828.000000	0.018154
827.000000	0.018157
826.000000	0.018640
825.000000	0.019508
824.000000	0.020640
823.000000	0.021997
822.000000	0.023496
821.000000	0.024987
820.000000	0.026402
819.000000	0.027805
818.000000	0.029222
817.000000	0.030586
816.000000	0.031887
815.000000	0.033210
814.000000	0.034583
813.000000	0.035944
812.000000	0.037333
811.000000	0.038953
810.000000	0.040968
809.000000	0.043378
808.000000	0.046148
807.000000	0.049313
806.000000	0.052866
805.000000	0.056701
804.000000	0.060722
803.000000	0.064916
802.000000	0.069213
801.000000	0.073433
800.000000	0.077406
799.000000	0.081040
798.000000	0.084229
797.000000	0.086873
796.000000	0.089077
795.000000	0.091209
794.000000	0.093643
793.000000	0.096568
792.000000	0.100091
791.000000	0.104422
790.000000	0.109874
789.000000	0.116806
788.000000	0.125602
787.000000	0.136505
786.000000	0.149322
785.000000	0.163265
784.000000	0.177102
783.000000	0.189394
782.000000	0.198726
781.000000	0.204067
780.000000	0.205210
779.000000	0.202907
778.000000	0.198404
777.000000	0.192909
776.000000	0.187345
775.000000	0.182316
774.000000	0.178068
773.000000	0.174519
772.000000	0.171495
771.000000	0.168900
770.000000	0.166682
769.000000	0.164780
768.000000	0.163199
767.000000	0.161976
766.000000	0.161000
765.000000	0.159971
764.000000	0.158614
763.000000	0.156831
762.000000	0.154589
761.000000	0.151836
760.000000	0.148612
759.000000	0.145100
758.000000	0.141463
757.000000	0.137723
756.000000	0.133891
755.000000	0.130064
754.000000	0.126334
753.000000	0.122720
752.000000	0.119278
751.000000	0.116137
750.000000	0.113355
749.000000	0.110853
748.000000	0.108573
747.000000	0.106555
746.000000	0.104804
745.000000	0.103233
744.000000	0.101805
743.000000	0.100627
742.000000	0.099794
741.000000	0.099278
740.000000	0.099021
739.000000	0.099030
738.000000	0.099313
737.000000	0.099836
736.000000	0.100617
735.000000	0.101749
734.000000	0.103258
733.000000	0.105056
732.000000	0.107071
731.000000	0.109306
730.000000	0.111716
729.000000	0.114174
728.000000	0.116638
727.000000	0.119223
726.000000	0.122049
725.000000	0.125101
724.000000	0.128311
723.000000	0.131657
722.000000	0.135092
721.000000	0.138489
720.000000	0.141729
719.000000	0.144795
718.000000	0.147711
717.000000	0.150491
716.000000	0.153193
715.000000	0.155903
714.000000	0.158589
713.000000	0.161078
712.000000	0.163259
711.000000	0.165194
710.000000	0.166984
709.000000	0.168624
708.000000	0.170086
707.000000	0.171409
706.000000	0.172630
705.000000	0.173732
704.000000	0.174742
703.000000	0.175799
702.000000	0.177033
701.000000	0.178491
700.000000	0.180242
699.000000	0.182387
698.000000	0.184872
697.000000	0.187379
696.000000	0.189519
695.000000	0.191082
694.000000	0.192017
693.000000	0.192346
692.000000	0.192223
691.000000	0.191956
690.000000	0.191806
689.000000	0.191851
688.000000	0.192091
687.000000	0.192583
686.000000	0.193356
685.000000	0.194348
684.000000	0.195550
683.000000	0.197085
682.000000	0.199029
681.000000	0.201270
680.000000	0.203701
679.000000	0.206382
678.000000	0.209378
677.000000	0.212569
676.000000	0.215763
675.000000	0.218883
674.000000	0.221926
673.000000	0.224776
672.000000	0.227206
671.000000	0.229117
670.000000	0.230655
669.000000	0.232069
668.000000	0.233489
667.000000	0.234866
666.000000	0.236013
665.000000	0.236750
664.000000	0.237039
663.000000	0.236950
662.000000	0.236561
661.000000	0.235906
660.000000	0.235039
659.000000	0.234122
658.000000	0.233331
657.000000	0.232739
656.000000	0.232354
655.000000	0.232180
654.000000	0.232225
653.000000	0.232502
652.000000	0.233030
651.000000	0.233814
650.000000	0.234789
649.000000	0.235837
648.000000	0.236912
647.000000	0.238060
646.000000	0.239293
645.000000	0.240485
644.000000	0.241480
643.000000	0.242255
642.000000	0.242896
641.000000	0.243478
640.000000	0.244031
639.000000	0.244578
638.000000	0.245134
637.000000	0.245688
636.000000	0.246228
635.000000	0.246772
634.000000	0.247316
633.000000	0.247835
632.000000	0.248373
631.000000	0.249063
630.000000	0.249997
629.000000	0.251137
628.000000	0.252423
627.000000	0.253873
626.000000	0.255521
625.000000	0.257326
624.000000	0.259235
623.000000	0.261260
622.000000	0.263386
621.000000	0.265487
620.000000	0.267386
619.000000	0.268975
618.000000	0.270208
617.000000	0.271074
616.000000	0.271659
615.000000	0.272160
614.000000	0.272724
613.000000	0.273318
612.000000	0.273802
611.000000	0.274091
610.000000	0.274149
609.000000	0.273911
608.000000	0.273351
607.000000	0.272568
606.000000	0.271706
605.000000	0.270836
604.000000	0.269992
603.000000	0.269260
602.000000	0.268699
601.000000	0.268243
600.000000	0.267828
599.000000	0.267521
598.000000	0.267401
597.000000	0.267422
596.000000	0.267506
595.000000	0.267672
594.000000	0.267931
593.000000	0.268170
592.000000	0.268298
591.000000	0.268444
590.000000	0.268867
589.000000	0.269722
588.000000	0.271010
587.000000	0.272685
586.000000	0.274647
585.000000	0.276744
584.000000	0.278888
583.000000	0.281091
582.000000	0.283298
581.000000	0.285302
580.000000	0.286946
579.000000	0.288293
578.000000	0.289471
577.000000	0.290388
576.000000	0.290804
575.000000	0.290611
574.000000	0.289910
573.000000	0.288835
572.000000	0.287461
571.000000	0.285888
570.000000	0.284262
569.000000	0.282685
568.000000	0.281246
567.000000	0.280069
566.000000	0.279200
565.000000	0.278540
564.000000	0.278024
563.000000	0.277749
562.000000	0.277752
561.000000	0.277785
560.000000	0.277500
559.000000	0.276805
558.000000	0.275871
557.000000	0.274864
556.000000	0.273854
555.000000	0.272927
554.000000	0.272186
553.000000	0.271663
552.000000	0.271381
551.000000	0.271447
550.000000	0.271942
549.000000	0.272829
548.000000	0.274091
547.000000	0.275815
546.000000	0.278034
545.000000	0.280590
544.000000	0.283363
543.000000	0.286475
542.000000	0.290107
541.000000	0.294247
540.000000	0.298697
539.000000	0.303217
538.000000	0.307532
537.000000	0.311308
536.000000	0.314266
535.000000	0.316331
534.000000	0.317612
533.000000	0.318270
532.000000	0.318472
531.000000	0.318412
530.000000	0.318216
529.000000	0.317833
528.000000	0.317181
527.000000	0.316380
526.000000	0.315680
525.000000	0.315211
524.000000	0.314923
523.000000	0.314732
522.000000	0.314569
521.000000	0.314295
520.000000	0.313689
519.000000	0.312520
518.000000	0.310547
517.000000	0.307567
516.000000	0.303607
515.000000	0.299024
514.000000	0.294191
513.000000	0.289115
512.000000	0.283616
511.000000	0.277779
510.000000	0.271925
509.000000	0.266223
508.000000	0.260688
507.000000	0.255499
506.000000	0.250791
505.000000	0.246184
504.000000	0.241010
503.000000	0.235256
502.000000	0.229962
501.000000	0.226298
500.000000	0.224409
499.000000	0.223343
498.000000	0.221983
497.000000	0.219954
496.000000	0.217726
495.000000	0.215982
494.000000	0.214931
493.000000	0.214282
492.000000	0.213811
491.000000	0.213654
490.000000	0.214032
489.000000	0.214930
488.000000	0.216227
487.000000	0.217878
486.000000	0.219810
485.000000	0.221899
484.000000	0.224153
483.000000	0.226673
482.000000	0.229342
481.000000	0.231841
480.000000	0.234000
479.000000	0.235845
478.000000	0.237271
477.000000	0.238050
476.000000	0.238202
475.000000	0.238005
474.000000	0.237578
473.000000	0.236690
472.000000	0.235104
471.000000	0.232934
470.000000	0.230351
469.000000	0.227221
468.000000	0.223397
467.000000	0.219030
466.000000	0.214374
465.000000	0.209488
464.000000	0.204419
463.000000	0.199443
462.000000	0.194726
461.000000	0.190033
460.000000	0.185048
459.000000	0.179752
458.000000	0.174306
457.000000	0.168843
456.000000	0.163646
455.000000	0.158964
454.000000	0.154519
453.000000	0.149823
452.000000	0.145001
451.000000	0.140765
450.000000	0.137407
449.000000	0.134386
448.000000	0.131249
447.000000	0.128212
446.000000	0.125565
445.000000	0.123123
444.000000	0.120702
443.000000	0.118491
442.000000	0.116458
441.000000	0.114147
440.000000	0.111496
439.000000	0.109019
438.000000	0.106863
437.000000	0.104473
436.000000	0.101613
435.000000	0.098968
434.000000	0.097017
433.000000	0.095234
432.000000	0.093048
431.000000	0.090704
430.000000	0.088423
429.000000	0.085740
428.000000	0.082427
427.000000	0.079102
426.000000	0.076147
425.000000	0.072991
424.000000	0.069319
423.000000	0.065886
422.000000	0.063171
421.000000	0.060395
420.000000	0.056890
419.000000	0.053195
418.000000	0.049543
417.000000	0.045525
416.000000	0.041313
415.000000	0.037809
414.000000	0.035396
413.000000	0.032968
412.000000	0.029389
411.000000	0.025023
410.000000	0.020488
409.000000	0.015551
408.000000	0.010516
407.000000	0.006885
406.000000	0.005118
405.000000	0.003573
404.000000	0.001491
403.000000	0.000762
402.000000	0.002943
401.000000	0.006913
400.000000	0.011114
