PE IR       SUBTECH     SPECTRUM    ASCII       PEDS        4.00        
   -1
G001-60C.asc
17/02/23
10:49:34.00
17/02/23
10:50:05.00
Administrator
Sample 125 By Administrator Date Thursday, February 23 2017
400.000000
#HDR
-1
-1
#GR
cm-1
A
1.0
0.0
4000.000000
-1.000000
3601
8
1.235255
-0.001044
#DATA
4000.000000	0.006130
3999.000000	0.006284
3998.000000	0.006443
3997.000000	0.006607
3996.000000	0.006770
3995.000000	0.006932
3994.000000	0.007092
3993.000000	0.007251
3992.000000	0.007409
3991.000000	0.007560
3990.000000	0.007698
3989.000000	0.007826
3988.000000	0.007957
3987.000000	0.008098
3986.000000	0.008250
3985.000000	0.008403
3984.000000	0.008550
3983.000000	0.008685
3982.000000	0.008813
3981.000000	0.008943
3980.000000	0.009089
3979.000000	0.009264
3978.000000	0.009467
3977.000000	0.009681
3976.000000	0.009884
3975.000000	0.010059
3974.000000	0.010204
3973.000000	0.010330
3972.000000	0.010450
3971.000000	0.010571
3970.000000	0.010693
3969.000000	0.010814
3968.000000	0.010935
3967.000000	0.011061
3966.000000	0.011206
3965.000000	0.011378
3964.000000	0.011571
3963.000000	0.011768
3962.000000	0.011951
3961.000000	0.012114
3960.000000	0.012263
3959.000000	0.012409
3958.000000	0.012552
3957.000000	0.012689
3956.000000	0.012822
3955.000000	0.012969
3954.000000	0.013152
3953.000000	0.013383
3952.000000	0.013655
3951.000000	0.013945
3950.000000	0.014223
3949.000000	0.014472
3948.000000	0.014690
3947.000000	0.014890
3946.000000	0.015091
3945.000000	0.015295
3944.000000	0.015471
3943.000000	0.015577
3942.000000	0.015605
3941.000000	0.015590
3940.000000	0.015583
3939.000000	0.015618
3938.000000	0.015709
3937.000000	0.015873
3936.000000	0.016134
3935.000000	0.016497
3934.000000	0.016914
3933.000000	0.017290
3932.000000	0.017548
3931.000000	0.017685
3930.000000	0.017764
3929.000000	0.017855
3928.000000	0.017988
3927.000000	0.018156
3926.000000	0.018334
3925.000000	0.018493
3924.000000	0.018635
3923.000000	0.018800
3922.000000	0.019030
3921.000000	0.019322
3920.000000	0.019617
3919.000000	0.019859
3918.000000	0.020019
3917.000000	0.020090
3916.000000	0.020067
3915.000000	0.019976
3914.000000	0.019871
3913.000000	0.019793
3912.000000	0.019769
3911.000000	0.019839
3910.000000	0.020065
3909.000000	0.020495
3908.000000	0.021121
3907.000000	0.021878
3906.000000	0.022690
3905.000000	0.023489
3904.000000	0.024224
3903.000000	0.024847
3902.000000	0.025303
3901.000000	0.025536
3900.000000	0.025511
3899.000000	0.025261
3898.000000	0.024917
3897.000000	0.024644
3896.000000	0.024540
3895.000000	0.024589
3894.000000	0.024696
3893.000000	0.024796
3892.000000	0.024919
3891.000000	0.025117
3890.000000	0.025406
3889.000000	0.025780
3888.000000	0.026231
3887.000000	0.026715
3886.000000	0.027169
3885.000000	0.027563
3884.000000	0.027917
3883.000000	0.028232
3882.000000	0.028434
3881.000000	0.028454
3880.000000	0.028336
3879.000000	0.028228
3878.000000	0.028268
3877.000000	0.028505
3876.000000	0.028890
3875.000000	0.029334
3874.000000	0.029770
3873.000000	0.030187
3872.000000	0.030623
3871.000000	0.031095
3870.000000	0.031556
3869.000000	0.031945
3868.000000	0.032271
3867.000000	0.032596
3866.000000	0.032880
3865.000000	0.032987
3864.000000	0.032880
3863.000000	0.032699
3862.000000	0.032616
3861.000000	0.032719
3860.000000	0.033018
3859.000000	0.033503
3858.000000	0.034171
3857.000000	0.034984
3856.000000	0.035812
3855.000000	0.036478
3854.000000	0.037012
3853.000000	0.037556
3852.000000	0.037987
3851.000000	0.038107
3850.000000	0.037915
3849.000000	0.037531
3848.000000	0.037109
3847.000000	0.036811
3846.000000	0.036747
3845.000000	0.036960
3844.000000	0.037438
3843.000000	0.038106
3842.000000	0.038852
3841.000000	0.039576
3840.000000	0.040203
3839.000000	0.040724
3838.000000	0.041197
3837.000000	0.041655
3836.000000	0.042029
3835.000000	0.042225
3834.000000	0.042217
3833.000000	0.042076
3832.000000	0.041913
3831.000000	0.041832
3830.000000	0.041881
3829.000000	0.042047
3828.000000	0.042316
3827.000000	0.042701
3826.000000	0.043222
3825.000000	0.043878
3824.000000	0.044620
3823.000000	0.045346
3822.000000	0.045995
3821.000000	0.046582
3820.000000	0.047102
3819.000000	0.047519
3818.000000	0.047814
3817.000000	0.047977
3816.000000	0.048011
3815.000000	0.047978
3814.000000	0.047997
3813.000000	0.048159
3812.000000	0.048442
3811.000000	0.048751
3810.000000	0.049022
3809.000000	0.049297
3808.000000	0.049726
3807.000000	0.050419
3806.000000	0.051323
3805.000000	0.052273
3804.000000	0.053113
3803.000000	0.053760
3802.000000	0.054250
3801.000000	0.054697
3800.000000	0.055150
3799.000000	0.055562
3798.000000	0.055838
3797.000000	0.055909
3796.000000	0.055811
3795.000000	0.055689
3794.000000	0.055691
3793.000000	0.055859
3792.000000	0.056134
3791.000000	0.056463
3790.000000	0.056858
3789.000000	0.057344
3788.000000	0.057901
3787.000000	0.058481
3786.000000	0.059072
3785.000000	0.059700
3784.000000	0.060378
3783.000000	0.061089
3782.000000	0.061788
3781.000000	0.062414
3780.000000	0.062932
3779.000000	0.063372
3778.000000	0.063800
3777.000000	0.064276
3776.000000	0.064829
3775.000000	0.065454
3774.000000	0.066123
3773.000000	0.066812
3772.000000	0.067523
3771.000000	0.068272
3770.000000	0.069069
3769.000000	0.069895
3768.000000	0.070701
3767.000000	0.071449
3766.000000	0.072133
3765.000000	0.072758
3764.000000	0.073358
3763.000000	0.074000
3762.000000	0.074732
3761.000000	0.075506
3760.000000	0.076252
3759.000000	0.077008
3758.000000	0.077866
3757.000000	0.078838
3756.000000	0.079885
3755.000000	0.080994
3754.000000	0.082156
3753.000000	0.083284
3752.000000	0.084330
3751.000000	0.085478
3750.000000	0.086891
3749.000000	0.088396
3748.000000	0.089682
3747.000000	0.090629
3746.000000	0.091342
3745.000000	0.092017
3744.000000	0.092746
3743.000000	0.093465
3742.000000	0.094124
3741.000000	0.094744
3740.000000	0.095345
3739.000000	0.096011
3738.000000	0.096909
3737.000000	0.098111
3736.000000	0.099422
3735.000000	0.100525
3734.000000	0.101309
3733.000000	0.101890
3732.000000	0.102409
3731.000000	0.102929
3730.000000	0.103510
3729.000000	0.104232
3728.000000	0.105137
3727.000000	0.106179
3726.000000	0.107285
3725.000000	0.108428
3724.000000	0.109600
3723.000000	0.110761
3722.000000	0.111882
3721.000000	0.112974
3720.000000	0.114081
3719.000000	0.115279
3718.000000	0.116636
3717.000000	0.118162
3716.000000	0.119844
3715.000000	0.121690
3714.000000	0.123705
3713.000000	0.125847
3712.000000	0.128056
3711.000000	0.130304
3710.000000	0.132552
3709.000000	0.134736
3708.000000	0.136809
3707.000000	0.138784
3706.000000	0.140745
3705.000000	0.142785
3704.000000	0.144958
3703.000000	0.147274
3702.000000	0.149718
3701.000000	0.152209
3700.000000	0.154593
3699.000000	0.156755
3698.000000	0.158677
3697.000000	0.160382
3696.000000	0.161920
3695.000000	0.163402
3694.000000	0.164956
3693.000000	0.166613
3692.000000	0.168299
3691.000000	0.169986
3690.000000	0.171844
3689.000000	0.174069
3688.000000	0.176554
3687.000000	0.178983
3686.000000	0.181198
3685.000000	0.183267
3684.000000	0.185334
3683.000000	0.187559
3682.000000	0.190112
3681.000000	0.193089
3680.000000	0.196418
3679.000000	0.199965
3678.000000	0.203765
3677.000000	0.208024
3676.000000	0.212817
3675.000000	0.217825
3674.000000	0.222583
3673.000000	0.226964
3672.000000	0.231154
3671.000000	0.235320
3670.000000	0.239513
3669.000000	0.243722
3668.000000	0.247888
3667.000000	0.251946
3666.000000	0.255894
3665.000000	0.259799
3664.000000	0.263806
3663.000000	0.268088
3662.000000	0.272725
3661.000000	0.277621
3660.000000	0.282605
3659.000000	0.287637
3658.000000	0.292862
3657.000000	0.298413
3656.000000	0.304167
3655.000000	0.309842
3654.000000	0.315312
3653.000000	0.320692
3652.000000	0.326153
3651.000000	0.331805
3650.000000	0.337732
3649.000000	0.343921
3648.000000	0.350062
3647.000000	0.355699
3646.000000	0.360629
3645.000000	0.364993
3644.000000	0.369084
3643.000000	0.373183
3642.000000	0.377481
3641.000000	0.382062
3640.000000	0.386933
3639.000000	0.392055
3638.000000	0.397367
3637.000000	0.402818
3636.000000	0.408397
3635.000000	0.414085
3634.000000	0.419770
3633.000000	0.425325
3632.000000	0.430825
3631.000000	0.436607
3630.000000	0.443019
3629.000000	0.449973
3628.000000	0.456869
3627.000000	0.463137
3626.000000	0.468661
3625.000000	0.473583
3624.000000	0.478062
3623.000000	0.482284
3622.000000	0.486494
3621.000000	0.490862
3620.000000	0.495385
3619.000000	0.499967
3618.000000	0.504496
3617.000000	0.508872
3616.000000	0.513064
3615.000000	0.517146
3614.000000	0.521244
3613.000000	0.525430
3612.000000	0.529728
3611.000000	0.534203
3610.000000	0.538932
3609.000000	0.543837
3608.000000	0.548697
3607.000000	0.553360
3606.000000	0.557837
3605.000000	0.562191
3604.000000	0.566462
3603.000000	0.570734
3602.000000	0.575143
3601.000000	0.579747
3600.000000	0.584459
3599.000000	0.589192
3598.000000	0.593939
3597.000000	0.598714
3596.000000	0.603507
3595.000000	0.608323
3594.000000	0.613164
3593.000000	0.617961
3592.000000	0.622637
3591.000000	0.627278
3590.000000	0.632134
3589.000000	0.637388
3588.000000	0.642970
3587.000000	0.648608
3586.000000	0.653987
3585.000000	0.658882
3584.000000	0.663253
3583.000000	0.667292
3582.000000	0.671286
3581.000000	0.675408
3580.000000	0.679666
3579.000000	0.684050
3578.000000	0.688586
3577.000000	0.693251
3576.000000	0.697955
3575.000000	0.702664
3574.000000	0.707429
3573.000000	0.712266
3572.000000	0.717136
3571.000000	0.722057
3570.000000	0.727132
3569.000000	0.732396
3568.000000	0.737737
3567.000000	0.742996
3566.000000	0.748054
3565.000000	0.752809
3564.000000	0.757227
3563.000000	0.761423
3562.000000	0.765569
3561.000000	0.769727
3560.000000	0.773851
3559.000000	0.777958
3558.000000	0.782144
3557.000000	0.786442
3556.000000	0.790801
3555.000000	0.795230
3554.000000	0.799789
3553.000000	0.804442
3552.000000	0.809039
3551.000000	0.813511
3550.000000	0.817962
3549.000000	0.822536
3548.000000	0.827292
3547.000000	0.832197
3546.000000	0.837110
3545.000000	0.841778
3544.000000	0.845998
3543.000000	0.849809
3542.000000	0.853422
3541.000000	0.857012
3540.000000	0.860686
3539.000000	0.864579
3538.000000	0.868767
3537.000000	0.873089
3536.000000	0.877255
3535.000000	0.881148
3534.000000	0.884898
3533.000000	0.888646
3532.000000	0.892438
3531.000000	0.896313
3530.000000	0.900324
3529.000000	0.904437
3528.000000	0.908574
3527.000000	0.912755
3526.000000	0.917049
3525.000000	0.921363
3524.000000	0.925465
3523.000000	0.929232
3522.000000	0.932746
3521.000000	0.936135
3520.000000	0.939486
3519.000000	0.942904
3518.000000	0.946479
3517.000000	0.950181
3516.000000	0.953917
3515.000000	0.957654
3514.000000	0.961383
3513.000000	0.965012
3512.000000	0.968464
3511.000000	0.971836
3510.000000	0.975284
3509.000000	0.978791
3508.000000	0.982227
3507.000000	0.985613
3506.000000	0.989103
3505.000000	0.992739
3504.000000	0.996389
3503.000000	0.999907
3502.000000	1.003220
3501.000000	1.006279
3500.000000	1.009126
3499.000000	1.011942
3498.000000	1.014876
3497.000000	1.017846
3496.000000	1.020686
3495.000000	1.023406
3494.000000	1.026137
3493.000000	1.028892
3492.000000	1.031593
3491.000000	1.034272
3490.000000	1.037032
3489.000000	1.039846
3488.000000	1.042589
3487.000000	1.045234
3486.000000	1.047828
3485.000000	1.050352
3484.000000	1.052786
3483.000000	1.055269
3482.000000	1.057958
3481.000000	1.060758
3480.000000	1.063408
3479.000000	1.065795
3478.000000	1.067997
3477.000000	1.070097
3476.000000	1.072139
3475.000000	1.074245
3474.000000	1.076545
3473.000000	1.079038
3472.000000	1.081664
3471.000000	1.084438
3470.000000	1.087327
3469.000000	1.090092
3468.000000	1.092466
3467.000000	1.094441
3466.000000	1.096217
3465.000000	1.097942
3464.000000	1.099702
3463.000000	1.101642
3462.000000	1.103840
3461.000000	1.106134
3460.000000	1.108282
3459.000000	1.110247
3458.000000	1.112153
3457.000000	1.114044
3456.000000	1.115899
3455.000000	1.117783
3454.000000	1.119763
3453.000000	1.121755
3452.000000	1.123648
3451.000000	1.125509
3450.000000	1.127474
3449.000000	1.129504
3448.000000	1.131452
3447.000000	1.133295
3446.000000	1.135087
3445.000000	1.136786
3444.000000	1.138335
3443.000000	1.139823
3442.000000	1.141388
3441.000000	1.143035
3440.000000	1.144728
3439.000000	1.146541
3438.000000	1.148503
3437.000000	1.150393
3436.000000	1.151920
3435.000000	1.153032
3434.000000	1.153896
3433.000000	1.154664
3432.000000	1.155448
3431.000000	1.156359
3430.000000	1.157378
3429.000000	1.158277
3428.000000	1.158882
3427.000000	1.159314
3426.000000	1.159798
3425.000000	1.160373
3424.000000	1.160971
3423.000000	1.161624
3422.000000	1.162361
3421.000000	1.163028
3420.000000	1.163458
3419.000000	1.163717
3418.000000	1.163991
3417.000000	1.164327
3416.000000	1.164701
3415.000000	1.165163
3414.000000	1.165725
3413.000000	1.166210
3412.000000	1.166446
3411.000000	1.166502
3410.000000	1.166543
3409.000000	1.166558
3408.000000	1.166458
3407.000000	1.166308
3406.000000	1.166269
3405.000000	1.166404
3404.000000	1.166723
3403.000000	1.167272
3402.000000	1.167969
3401.000000	1.168467
3400.000000	1.168434
3399.000000	1.167908
3398.000000	1.167205
3397.000000	1.166585
3396.000000	1.166193
3395.000000	1.166150
3394.000000	1.166452
3393.000000	1.166830
3392.000000	1.166951
3391.000000	1.166710
3390.000000	1.166217
3389.000000	1.165596
3388.000000	1.164964
3387.000000	1.164481
3386.000000	1.164234
3385.000000	1.164130
3384.000000	1.164049
3383.000000	1.164013
3382.000000	1.164053
3381.000000	1.164071
3380.000000	1.163965
3379.000000	1.163788
3378.000000	1.163615
3377.000000	1.163379
3376.000000	1.163011
3375.000000	1.162631
3374.000000	1.162417
3373.000000	1.162408
3372.000000	1.162532
3371.000000	1.162727
3370.000000	1.162875
3369.000000	1.162774
3368.000000	1.162323
3367.000000	1.161649
3366.000000	1.160923
3365.000000	1.160169
3364.000000	1.159392
3363.000000	1.158701
3362.000000	1.158164
3361.000000	1.157653
3360.000000	1.157020
3359.000000	1.156299
3358.000000	1.155577
3357.000000	1.154826
3356.000000	1.154002
3355.000000	1.153196
3354.000000	1.152511
3353.000000	1.151891
3352.000000	1.151193
3351.000000	1.150354
3350.000000	1.149342
3349.000000	1.148094
3348.000000	1.146652
3347.000000	1.145222
3346.000000	1.143960
3345.000000	1.142793
3344.000000	1.141557
3343.000000	1.140210
3342.000000	1.138790
3341.000000	1.137287
3340.000000	1.135685
3339.000000	1.134030
3338.000000	1.132324
3337.000000	1.130467
3336.000000	1.128415
3335.000000	1.126277
3334.000000	1.124158
3333.000000	1.122042
3332.000000	1.119902
3331.000000	1.117806
3330.000000	1.115794
3329.000000	1.113777
3328.000000	1.111674
3327.000000	1.109516
3326.000000	1.107327
3325.000000	1.105046
3324.000000	1.102650
3323.000000	1.100243
3322.000000	1.097909
3321.000000	1.095593
3320.000000	1.093245
3319.000000	1.090921
3318.000000	1.088674
3317.000000	1.086438
3316.000000	1.084152
3315.000000	1.081873
3314.000000	1.079656
3313.000000	1.077460
3312.000000	1.075244
3311.000000	1.073060
3310.000000	1.070948
3309.000000	1.068837
3308.000000	1.066657
3307.000000	1.064431
3306.000000	1.062174
3305.000000	1.059823
3304.000000	1.057361
3303.000000	1.054890
3302.000000	1.052500
3301.000000	1.050157
3300.000000	1.047811
3299.000000	1.045494
3298.000000	1.043226
3297.000000	1.040945
3296.000000	1.038610
3295.000000	1.036281
3294.000000	1.034000
3293.000000	1.031699
3292.000000	1.029306
3291.000000	1.026843
3290.000000	1.024361
3289.000000	1.021850
3288.000000	1.019306
3287.000000	1.016774
3286.000000	1.014264
3285.000000	1.011718
3284.000000	1.009112
3283.000000	1.006511
3282.000000	1.003950
3281.000000	1.001365
3280.000000	0.998704
3279.000000	0.996009
3278.000000	0.993326
3277.000000	0.990622
3276.000000	0.987863
3275.000000	0.985078
3274.000000	0.982291
3273.000000	0.979469
3272.000000	0.976597
3271.000000	0.973712
3270.000000	0.970817
3269.000000	0.967860
3268.000000	0.964831
3267.000000	0.961804
3266.000000	0.958822
3265.000000	0.955840
3264.000000	0.952820
3263.000000	0.949797
3262.000000	0.946799
3261.000000	0.943785
3260.000000	0.940732
3259.000000	0.937677
3258.000000	0.934638
3257.000000	0.931568
3256.000000	0.928435
3255.000000	0.925275
3254.000000	0.922126
3253.000000	0.918970
3252.000000	0.915793
3251.000000	0.912629
3250.000000	0.909490
3249.000000	0.906339
3248.000000	0.903155
3247.000000	0.899962
3246.000000	0.896755
3245.000000	0.893490
3244.000000	0.890162
3243.000000	0.886841
3242.000000	0.883565
3241.000000	0.880295
3240.000000	0.876992
3239.000000	0.873673
3238.000000	0.870352
3237.000000	0.867008
3236.000000	0.863633
3235.000000	0.860261
3234.000000	0.856905
3233.000000	0.853522
3232.000000	0.850092
3231.000000	0.846649
3230.000000	0.843213
3229.000000	0.839754
3228.000000	0.836247
3227.000000	0.832720
3226.000000	0.829201
3225.000000	0.825682
3224.000000	0.822160
3223.000000	0.818651
3222.000000	0.815147
3221.000000	0.811606
3220.000000	0.808016
3219.000000	0.804417
3218.000000	0.800828
3217.000000	0.797218
3216.000000	0.793575
3215.000000	0.789928
3214.000000	0.786296
3213.000000	0.782654
3212.000000	0.778982
3211.000000	0.775297
3210.000000	0.771609
3209.000000	0.767898
3208.000000	0.764159
3207.000000	0.760420
3206.000000	0.756699
3205.000000	0.752973
3204.000000	0.749229
3203.000000	0.745488
3202.000000	0.741764
3201.000000	0.738042
3200.000000	0.734307
3199.000000	0.730563
3198.000000	0.726808
3197.000000	0.723024
3196.000000	0.719221
3195.000000	0.715429
3194.000000	0.711658
3193.000000	0.707890
3192.000000	0.704122
3191.000000	0.700377
3190.000000	0.696658
3189.000000	0.692937
3188.000000	0.689204
3187.000000	0.685474
3186.000000	0.681754
3185.000000	0.678023
3184.000000	0.674276
3183.000000	0.670540
3182.000000	0.666834
3181.000000	0.663145
3180.000000	0.659459
3179.000000	0.655779
3178.000000	0.652104
3177.000000	0.648422
3176.000000	0.644735
3175.000000	0.641066
3174.000000	0.637418
3173.000000	0.633780
3172.000000	0.630149
3171.000000	0.626541
3170.000000	0.622953
3169.000000	0.619362
3168.000000	0.615761
3167.000000	0.612169
3166.000000	0.608602
3165.000000	0.605050
3164.000000	0.601506
3163.000000	0.597977
3162.000000	0.594471
3161.000000	0.590976
3160.000000	0.587490
3159.000000	0.584020
3158.000000	0.580574
3157.000000	0.577146
3156.000000	0.573741
3155.000000	0.570371
3154.000000	0.567029
3153.000000	0.563684
3152.000000	0.560313
3151.000000	0.556922
3150.000000	0.553528
3149.000000	0.550142
3148.000000	0.546780
3147.000000	0.543458
3146.000000	0.540176
3145.000000	0.536916
3144.000000	0.533668
3143.000000	0.530442
3142.000000	0.527248
3141.000000	0.524081
3140.000000	0.520924
3139.000000	0.517769
3138.000000	0.514611
3137.000000	0.511456
3136.000000	0.508316
3135.000000	0.505203
3134.000000	0.502120
3133.000000	0.499060
3132.000000	0.496025
3131.000000	0.493017
3130.000000	0.490031
3129.000000	0.487051
3128.000000	0.484078
3127.000000	0.481129
3126.000000	0.478216
3125.000000	0.475333
3124.000000	0.472477
3123.000000	0.469654
3122.000000	0.466868
3121.000000	0.464114
3120.000000	0.461375
3119.000000	0.458641
3118.000000	0.455909
3117.000000	0.453177
3116.000000	0.450450
3115.000000	0.447735
3114.000000	0.445044
3113.000000	0.442389
3112.000000	0.439779
3111.000000	0.437217
3110.000000	0.434692
3109.000000	0.432184
3108.000000	0.429683
3107.000000	0.427198
3106.000000	0.424746
3105.000000	0.422337
3104.000000	0.419966
3103.000000	0.417623
3102.000000	0.415299
3101.000000	0.412991
3100.000000	0.410700
3099.000000	0.408434
3098.000000	0.406196
3097.000000	0.403981
3096.000000	0.401786
3095.000000	0.399608
3094.000000	0.397449
3093.000000	0.395316
3092.000000	0.393214
3091.000000	0.391142
3090.000000	0.389094
3089.000000	0.387064
3088.000000	0.385055
3087.000000	0.383074
3086.000000	0.381123
3085.000000	0.379198
3084.000000	0.377288
3083.000000	0.375391
3082.000000	0.373506
3081.000000	0.371633
3080.000000	0.369768
3079.000000	0.367906
3078.000000	0.366048
3077.000000	0.364193
3076.000000	0.362347
3075.000000	0.360514
3074.000000	0.358701
3073.000000	0.356911
3072.000000	0.355143
3071.000000	0.353394
3070.000000	0.351658
3069.000000	0.349931
3068.000000	0.348193
3067.000000	0.346424
3066.000000	0.344608
3065.000000	0.342747
3064.000000	0.340854
3063.000000	0.338939
3062.000000	0.337010
3061.000000	0.335072
3060.000000	0.333129
3059.000000	0.331184
3058.000000	0.329233
3057.000000	0.327275
3056.000000	0.325309
3055.000000	0.323341
3054.000000	0.321382
3053.000000	0.319446
3052.000000	0.317537
3051.000000	0.315649
3050.000000	0.313776
3049.000000	0.311916
3048.000000	0.310073
3047.000000	0.308250
3046.000000	0.306454
3045.000000	0.304691
3044.000000	0.302957
3043.000000	0.301245
3042.000000	0.299555
3041.000000	0.297890
3040.000000	0.296253
3039.000000	0.294642
3038.000000	0.293059
3037.000000	0.291509
3036.000000	0.289995
3035.000000	0.288513
3034.000000	0.287060
3033.000000	0.285626
3032.000000	0.284202
3031.000000	0.282781
3030.000000	0.281374
3029.000000	0.279995
3028.000000	0.278652
3027.000000	0.277343
3026.000000	0.276069
3025.000000	0.274836
3024.000000	0.273646
3023.000000	0.272494
3022.000000	0.271382
3021.000000	0.270322
3020.000000	0.269320
3019.000000	0.268375
3018.000000	0.267491
3017.000000	0.266670
3016.000000	0.265912
3015.000000	0.265207
3014.000000	0.264546
3013.000000	0.263928
3012.000000	0.263353
3011.000000	0.262819
3010.000000	0.262327
3009.000000	0.261889
3008.000000	0.261508
3007.000000	0.261183
3006.000000	0.260917
3005.000000	0.260718
3004.000000	0.260590
3003.000000	0.260535
3002.000000	0.260557
3001.000000	0.260670
3000.000000	0.260887
2999.000000	0.261214
2998.000000	0.261657
2997.000000	0.262229
2996.000000	0.262939
2995.000000	0.263789
2994.000000	0.264789
2993.000000	0.265948
2992.000000	0.267269
2991.000000	0.268752
2990.000000	0.270396
2989.000000	0.272207
2988.000000	0.274176
2987.000000	0.276287
2986.000000	0.278528
2985.000000	0.280897
2984.000000	0.283391
2983.000000	0.286002
2982.000000	0.288726
2981.000000	0.291558
2980.000000	0.294493
2979.000000	0.297524
2978.000000	0.300647
2977.000000	0.303863
2976.000000	0.307168
2975.000000	0.310552
2974.000000	0.314008
2973.000000	0.317525
2972.000000	0.321093
2971.000000	0.324696
2970.000000	0.328323
2969.000000	0.331965
2968.000000	0.335605
2967.000000	0.339227
2966.000000	0.342822
2965.000000	0.346388
2964.000000	0.349928
2963.000000	0.353445
2962.000000	0.356946
2961.000000	0.360439
2960.000000	0.363934
2959.000000	0.367435
2958.000000	0.370954
2957.000000	0.374503
2956.000000	0.378097
2955.000000	0.381750
2954.000000	0.385483
2953.000000	0.389323
2952.000000	0.393292
2951.000000	0.397408
2950.000000	0.401676
2949.000000	0.406090
2948.000000	0.410637
2947.000000	0.415288
2946.000000	0.420001
2945.000000	0.424728
2944.000000	0.429423
2943.000000	0.434040
2942.000000	0.438535
2941.000000	0.442869
2940.000000	0.447011
2939.000000	0.450936
2938.000000	0.454619
2937.000000	0.458040
2936.000000	0.461183
2935.000000	0.464034
2934.000000	0.466577
2933.000000	0.468794
2932.000000	0.470680
2931.000000	0.472228
2930.000000	0.473421
2929.000000	0.474230
2928.000000	0.474628
2927.000000	0.474589
2926.000000	0.474080
2925.000000	0.473073
2924.000000	0.471552
2923.000000	0.469515
2922.000000	0.466961
2921.000000	0.463882
2920.000000	0.460262
2919.000000	0.456073
2918.000000	0.451292
2917.000000	0.445947
2916.000000	0.440153
2915.000000	0.434110
2914.000000	0.428052
2913.000000	0.422193
2912.000000	0.416686
2911.000000	0.411609
2910.000000	0.406973
2909.000000	0.402749
2908.000000	0.398889
2907.000000	0.395343
2906.000000	0.392063
2905.000000	0.389004
2904.000000	0.386125
2903.000000	0.383386
2902.000000	0.380757
2901.000000	0.378214
2900.000000	0.375733
2899.000000	0.373288
2898.000000	0.370860
2897.000000	0.368447
2896.000000	0.366051
2895.000000	0.363664
2894.000000	0.361276
2893.000000	0.358877
2892.000000	0.356459
2891.000000	0.354014
2890.000000	0.351538
2889.000000	0.349027
2888.000000	0.346479
2887.000000	0.343889
2886.000000	0.341258
2885.000000	0.338597
2884.000000	0.335915
2883.000000	0.333211
2882.000000	0.330480
2881.000000	0.327724
2880.000000	0.324940
2879.000000	0.322126
2878.000000	0.319277
2877.000000	0.316397
2876.000000	0.313483
2875.000000	0.310527
2874.000000	0.307520
2873.000000	0.304457
2872.000000	0.301336
2871.000000	0.298165
2870.000000	0.294975
2869.000000	0.291824
2868.000000	0.288778
2867.000000	0.285897
2866.000000	0.283240
2865.000000	0.280863
2864.000000	0.278808
2863.000000	0.277096
2862.000000	0.275734
2861.000000	0.274716
2860.000000	0.274004
2859.000000	0.273531
2858.000000	0.273206
2857.000000	0.272926
2856.000000	0.272568
2855.000000	0.271989
2854.000000	0.271037
2853.000000	0.269544
2852.000000	0.267318
2851.000000	0.264175
2850.000000	0.260027
2849.000000	0.254951
2848.000000	0.249191
2847.000000	0.243086
2846.000000	0.236969
2845.000000	0.231094
2844.000000	0.225598
2843.000000	0.220510
2842.000000	0.215811
2841.000000	0.211459
2840.000000	0.207410
2839.000000	0.203612
2838.000000	0.200027
2837.000000	0.196623
2836.000000	0.193372
2835.000000	0.190245
2834.000000	0.187230
2833.000000	0.184330
2832.000000	0.181544
2831.000000	0.178867
2830.000000	0.176297
2829.000000	0.173838
2828.000000	0.171483
2827.000000	0.169218
2826.000000	0.167035
2825.000000	0.164937
2824.000000	0.162917
2823.000000	0.160963
2822.000000	0.159072
2821.000000	0.157251
2820.000000	0.155498
2819.000000	0.153800
2818.000000	0.152155
2817.000000	0.150568
2816.000000	0.149036
2815.000000	0.147543
2814.000000	0.146085
2813.000000	0.144670
2812.000000	0.143297
2811.000000	0.141961
2810.000000	0.140661
2809.000000	0.139407
2808.000000	0.138193
2807.000000	0.137005
2806.000000	0.135839
2805.000000	0.134702
2804.000000	0.133595
2803.000000	0.132508
2802.000000	0.131442
2801.000000	0.130407
2800.000000	0.129403
2799.000000	0.128423
2798.000000	0.127465
2797.000000	0.126536
2796.000000	0.125631
2795.000000	0.124738
2794.000000	0.123858
2793.000000	0.123004
2792.000000	0.122180
2791.000000	0.121376
2790.000000	0.120595
2789.000000	0.119848
2788.000000	0.119131
2787.000000	0.118428
2786.000000	0.117733
2785.000000	0.117058
2784.000000	0.116407
2783.000000	0.115774
2782.000000	0.115158
2781.000000	0.114571
2780.000000	0.114011
2779.000000	0.113466
2778.000000	0.112933
2777.000000	0.112422
2776.000000	0.111936
2775.000000	0.111472
2774.000000	0.111036
2773.000000	0.110634
2772.000000	0.110254
2771.000000	0.109871
2770.000000	0.109472
2769.000000	0.109053
2768.000000	0.108606
2767.000000	0.108115
2766.000000	0.107587
2765.000000	0.107047
2764.000000	0.106507
2763.000000	0.105966
2762.000000	0.105430
2761.000000	0.104912
2760.000000	0.104414
2759.000000	0.103930
2758.000000	0.103461
2757.000000	0.103018
2756.000000	0.102601
2755.000000	0.102194
2754.000000	0.101795
2753.000000	0.101411
2752.000000	0.101039
2751.000000	0.100664
2750.000000	0.100288
2749.000000	0.099926
2748.000000	0.099580
2747.000000	0.099238
2746.000000	0.098899
2745.000000	0.098569
2744.000000	0.098246
2743.000000	0.097917
2742.000000	0.097582
2741.000000	0.097250
2740.000000	0.096920
2739.000000	0.096581
2738.000000	0.096236
2737.000000	0.095896
2736.000000	0.095561
2735.000000	0.095214
2734.000000	0.094854
2733.000000	0.094495
2732.000000	0.094139
2731.000000	0.093776
2730.000000	0.093404
2729.000000	0.093031
2728.000000	0.092657
2727.000000	0.092273
2726.000000	0.091878
2725.000000	0.091483
2724.000000	0.091086
2723.000000	0.090677
2722.000000	0.090261
2721.000000	0.089848
2720.000000	0.089436
2719.000000	0.089007
2718.000000	0.088562
2717.000000	0.088114
2716.000000	0.087666
2715.000000	0.087206
2714.000000	0.086737
2713.000000	0.086271
2712.000000	0.085808
2711.000000	0.085335
2710.000000	0.084851
2709.000000	0.084367
2708.000000	0.083882
2707.000000	0.083390
2706.000000	0.082894
2705.000000	0.082411
2704.000000	0.081940
2703.000000	0.081467
2702.000000	0.080995
2701.000000	0.080536
2700.000000	0.080091
2699.000000	0.079646
2698.000000	0.079201
2697.000000	0.078768
2696.000000	0.078346
2695.000000	0.077924
2694.000000	0.077501
2693.000000	0.077089
2692.000000	0.076685
2691.000000	0.076279
2690.000000	0.075873
2689.000000	0.075482
2688.000000	0.075105
2687.000000	0.074726
2686.000000	0.074345
2685.000000	0.073971
2684.000000	0.073603
2683.000000	0.073229
2682.000000	0.072849
2681.000000	0.072480
2680.000000	0.072124
2679.000000	0.071771
2678.000000	0.071418
2677.000000	0.071071
2676.000000	0.070724
2675.000000	0.070362
2674.000000	0.069988
2673.000000	0.069620
2672.000000	0.069261
2671.000000	0.068903
2670.000000	0.068545
2669.000000	0.068198
2668.000000	0.067857
2667.000000	0.067503
2666.000000	0.067137
2665.000000	0.066776
2664.000000	0.066424
2663.000000	0.066071
2662.000000	0.065718
2661.000000	0.065377
2660.000000	0.065045
2659.000000	0.064705
2658.000000	0.064355
2657.000000	0.064003
2656.000000	0.063652
2655.000000	0.063293
2654.000000	0.062936
2653.000000	0.062597
2652.000000	0.062270
2651.000000	0.061935
2650.000000	0.061584
2649.000000	0.061229
2648.000000	0.060868
2647.000000	0.060491
2646.000000	0.060107
2645.000000	0.059734
2644.000000	0.059374
2643.000000	0.059010
2642.000000	0.058638
2641.000000	0.058265
2640.000000	0.057887
2639.000000	0.057493
2638.000000	0.057088
2637.000000	0.056688
2636.000000	0.056296
2635.000000	0.055900
2634.000000	0.055499
2633.000000	0.055106
2632.000000	0.054715
2631.000000	0.054310
2630.000000	0.053894
2629.000000	0.053486
2628.000000	0.053091
2627.000000	0.052700
2626.000000	0.052311
2625.000000	0.051935
2624.000000	0.051568
2623.000000	0.051194
2622.000000	0.050816
2621.000000	0.050448
2620.000000	0.050092
2619.000000	0.049734
2618.000000	0.049376
2617.000000	0.049034
2616.000000	0.048706
2615.000000	0.048375
2614.000000	0.048039
2613.000000	0.047712
2612.000000	0.047394
2611.000000	0.047072
2610.000000	0.046749
2609.000000	0.046440
2608.000000	0.046145
2607.000000	0.045848
2606.000000	0.045552
2605.000000	0.045267
2604.000000	0.044990
2603.000000	0.044707
2602.000000	0.044418
2601.000000	0.044139
2600.000000	0.043869
2599.000000	0.043594
2598.000000	0.043316
2597.000000	0.043053
2596.000000	0.042805
2595.000000	0.042555
2594.000000	0.042302
2593.000000	0.042057
2592.000000	0.041818
2591.000000	0.041569
2590.000000	0.041314
2589.000000	0.041070
2588.000000	0.040836
2587.000000	0.040600
2586.000000	0.040362
2585.000000	0.040136
2584.000000	0.039916
2583.000000	0.039685
2582.000000	0.039441
2581.000000	0.039200
2580.000000	0.038966
2579.000000	0.038730
2578.000000	0.038497
2577.000000	0.038280
2576.000000	0.038076
2575.000000	0.037863
2574.000000	0.037636
2573.000000	0.037409
2572.000000	0.037180
2571.000000	0.036941
2570.000000	0.036701
2569.000000	0.036478
2568.000000	0.036269
2567.000000	0.036055
2566.000000	0.035829
2565.000000	0.035604
2564.000000	0.035377
2563.000000	0.035136
2562.000000	0.034888
2561.000000	0.034657
2560.000000	0.034442
2559.000000	0.034227
2558.000000	0.034007
2557.000000	0.033792
2556.000000	0.033575
2555.000000	0.033340
2554.000000	0.033096
2553.000000	0.032865
2552.000000	0.032652
2551.000000	0.032441
2550.000000	0.032232
2549.000000	0.032033
2548.000000	0.031839
2547.000000	0.031628
2546.000000	0.031403
2545.000000	0.031183
2544.000000	0.030975
2543.000000	0.030765
2542.000000	0.030555
2541.000000	0.030358
2540.000000	0.030166
2539.000000	0.029960
2538.000000	0.029739
2537.000000	0.029522
2536.000000	0.029310
2535.000000	0.029091
2534.000000	0.028870
2533.000000	0.028665
2532.000000	0.028470
2531.000000	0.028263
2530.000000	0.028041
2529.000000	0.027824
2528.000000	0.027615
2527.000000	0.027402
2526.000000	0.027190
2525.000000	0.026994
2524.000000	0.026812
2523.000000	0.026624
2522.000000	0.026430
2521.000000	0.026243
2520.000000	0.026062
2519.000000	0.025874
2518.000000	0.025686
2517.000000	0.025519
2516.000000	0.025369
2515.000000	0.025214
2514.000000	0.025053
2513.000000	0.024899
2512.000000	0.024753
2511.000000	0.024597
2510.000000	0.024435
2509.000000	0.024287
2508.000000	0.024152
2507.000000	0.024013
2506.000000	0.023870
2505.000000	0.023735
2504.000000	0.023602
2503.000000	0.023451
2502.000000	0.023288
2501.000000	0.023130
2500.000000	0.022974
2499.000000	0.022800
2498.000000	0.022607
2497.000000	0.022416
2496.000000	0.022227
2495.000000	0.022022
2494.000000	0.021804
2493.000000	0.021590
2492.000000	0.021384
2491.000000	0.021172
2490.000000	0.020959
2489.000000	0.020762
2488.000000	0.020578
2487.000000	0.020388
2486.000000	0.020194
2485.000000	0.020011
2484.000000	0.019834
2483.000000	0.019643
2482.000000	0.019442
2481.000000	0.019252
2480.000000	0.019073
2479.000000	0.018888
2478.000000	0.018699
2477.000000	0.018524
2476.000000	0.018360
2475.000000	0.018185
2474.000000	0.017998
2473.000000	0.017815
2472.000000	0.017637
2471.000000	0.017448
2470.000000	0.017254
2469.000000	0.017077
2468.000000	0.016915
2467.000000	0.016747
2466.000000	0.016574
2465.000000	0.016412
2464.000000	0.016254
2463.000000	0.016080
2462.000000	0.015893
2461.000000	0.015716
2460.000000	0.015552
2459.000000	0.015385
2458.000000	0.015216
2457.000000	0.015058
2456.000000	0.014904
2455.000000	0.014733
2454.000000	0.014547
2453.000000	0.014366
2452.000000	0.014192
2451.000000	0.014011
2450.000000	0.013829
2449.000000	0.013666
2448.000000	0.013515
2447.000000	0.013349
2446.000000	0.013167
2445.000000	0.012989
2444.000000	0.012817
2443.000000	0.012636
2442.000000	0.012454
2441.000000	0.012288
2440.000000	0.012136
2439.000000	0.011972
2438.000000	0.011796
2437.000000	0.011624
2436.000000	0.011451
2435.000000	0.011262
2434.000000	0.011065
2433.000000	0.010885
2432.000000	0.010720
2431.000000	0.010549
2430.000000	0.010370
2429.000000	0.010197
2428.000000	0.010029
2427.000000	0.009844
2426.000000	0.009650
2425.000000	0.009470
2424.000000	0.009308
2423.000000	0.009144
2422.000000	0.008977
2421.000000	0.008819
2420.000000	0.008663
2419.000000	0.008490
2418.000000	0.008307
2417.000000	0.008143
2416.000000	0.007998
2415.000000	0.007853
2414.000000	0.007707
2413.000000	0.007575
2412.000000	0.007450
2411.000000	0.007308
2410.000000	0.007154
2409.000000	0.007012
2408.000000	0.006888
2407.000000	0.006765
2406.000000	0.006647
2405.000000	0.006546
2404.000000	0.006451
2403.000000	0.006332
2402.000000	0.006188
2401.000000	0.006041
2400.000000	0.005895
2399.000000	0.005738
2398.000000	0.005582
2397.000000	0.005449
2396.000000	0.005330
2395.000000	0.005194
2394.000000	0.005035
2393.000000	0.004876
2392.000000	0.004721
2391.000000	0.004561
2390.000000	0.004407
2389.000000	0.004283
2388.000000	0.004180
2387.000000	0.004068
2386.000000	0.003942
2385.000000	0.003816
2384.000000	0.003685
2383.000000	0.003534
2382.000000	0.003380
2381.000000	0.003257
2380.000000	0.003164
2379.000000	0.003075
2378.000000	0.002981
2377.000000	0.002894
2376.000000	0.002804
2375.000000	0.002689
2374.000000	0.002561
2373.000000	0.002455
2372.000000	0.002371
2371.000000	0.002282
2370.000000	0.002189
2369.000000	0.002115
2368.000000	0.002047
2367.000000	0.001951
2366.000000	0.001836
2365.000000	0.001744
2364.000000	0.001674
2363.000000	0.001600
2362.000000	0.001532
2361.000000	0.001492
2360.000000	0.001458
2359.000000	0.001399
2358.000000	0.001327
2357.000000	0.001281
2356.000000	0.001242
2355.000000	0.001178
2354.000000	0.001086
2353.000000	0.000981
2352.000000	0.000864
2351.000000	0.000746
2350.000000	0.000706
2349.000000	0.000791
2348.000000	0.000932
2347.000000	0.000996
2346.000000	0.000901
2345.000000	0.000733
2344.000000	0.000602
2343.000000	0.000548
2342.000000	0.000538
2341.000000	0.000533
2340.000000	0.000528
2339.000000	0.000505
2338.000000	0.000484
2337.000000	0.000487
2336.000000	0.000518
2335.000000	0.000540
2334.000000	0.000546
2333.000000	0.000537
2332.000000	0.000517
2331.000000	0.000454
2330.000000	0.000394
2329.000000	0.000392
2328.000000	0.000460
2327.000000	0.000555
2326.000000	0.000630
2325.000000	0.000685
2324.000000	0.000699
2323.000000	0.000670
2322.000000	0.000629
2321.000000	0.000622
2320.000000	0.000659
2319.000000	0.000702
2318.000000	0.000762
2317.000000	0.000842
2316.000000	0.000926
2315.000000	0.000956
2314.000000	0.000941
2313.000000	0.000923
2312.000000	0.000935
2311.000000	0.000960
2310.000000	0.000998
2309.000000	0.001059
2308.000000	0.001137
2307.000000	0.001200
2306.000000	0.001254
2305.000000	0.001323
2304.000000	0.001410
2303.000000	0.001485
2302.000000	0.001553
2301.000000	0.001635
2300.000000	0.001727
2299.000000	0.001800
2298.000000	0.001855
2297.000000	0.001916
2296.000000	0.001985
2295.000000	0.002040
2294.000000	0.002084
2293.000000	0.002143
2292.000000	0.002216
2291.000000	0.002273
2290.000000	0.002309
2289.000000	0.002350
2288.000000	0.002393
2287.000000	0.002420
2286.000000	0.002436
2285.000000	0.002470
2284.000000	0.002519
2283.000000	0.002558
2282.000000	0.002586
2281.000000	0.002626
2280.000000	0.002674
2279.000000	0.002703
2278.000000	0.002717
2277.000000	0.002749
2276.000000	0.002800
2275.000000	0.002844
2274.000000	0.002880
2273.000000	0.002929
2272.000000	0.002989
2271.000000	0.003038
2270.000000	0.003077
2269.000000	0.003133
2268.000000	0.003205
2267.000000	0.003264
2266.000000	0.003311
2265.000000	0.003372
2264.000000	0.003444
2263.000000	0.003500
2262.000000	0.003545
2261.000000	0.003609
2260.000000	0.003692
2259.000000	0.003766
2258.000000	0.003829
2257.000000	0.003903
2256.000000	0.003987
2255.000000	0.004054
2254.000000	0.004109
2253.000000	0.004179
2252.000000	0.004263
2251.000000	0.004337
2250.000000	0.004403
2249.000000	0.004487
2248.000000	0.004583
2247.000000	0.004661
2246.000000	0.004723
2245.000000	0.004800
2244.000000	0.004895
2243.000000	0.004980
2242.000000	0.005055
2241.000000	0.005145
2240.000000	0.005247
2239.000000	0.005331
2238.000000	0.005398
2237.000000	0.005478
2236.000000	0.005571
2235.000000	0.005653
2234.000000	0.005727
2233.000000	0.005816
2232.000000	0.005913
2231.000000	0.005983
2230.000000	0.006024
2229.000000	0.006067
2228.000000	0.006114
2227.000000	0.006139
2226.000000	0.006148
2225.000000	0.006169
2224.000000	0.006201
2223.000000	0.006218
2222.000000	0.006220
2221.000000	0.006235
2220.000000	0.006265
2219.000000	0.006289
2218.000000	0.006311
2217.000000	0.006358
2216.000000	0.006420
2215.000000	0.006465
2214.000000	0.006494
2213.000000	0.006540
2212.000000	0.006603
2211.000000	0.006656
2210.000000	0.006705
2209.000000	0.006779
2208.000000	0.006873
2207.000000	0.006954
2206.000000	0.007015
2205.000000	0.007080
2204.000000	0.007150
2203.000000	0.007206
2202.000000	0.007259
2201.000000	0.007343
2200.000000	0.007455
2199.000000	0.007560
2198.000000	0.007649
2197.000000	0.007743
2196.000000	0.007837
2195.000000	0.007906
2194.000000	0.007964
2193.000000	0.008053
2192.000000	0.008178
2191.000000	0.008305
2190.000000	0.008424
2189.000000	0.008553
2188.000000	0.008683
2187.000000	0.008788
2186.000000	0.008876
2185.000000	0.008985
2184.000000	0.009122
2183.000000	0.009260
2182.000000	0.009397
2181.000000	0.009556
2180.000000	0.009722
2179.000000	0.009856
2178.000000	0.009962
2177.000000	0.010080
2176.000000	0.010219
2175.000000	0.010357
2174.000000	0.010495
2173.000000	0.010657
2172.000000	0.010830
2171.000000	0.010976
2170.000000	0.011094
2169.000000	0.011216
2168.000000	0.011344
2167.000000	0.011456
2166.000000	0.011562
2165.000000	0.011697
2164.000000	0.011851
2163.000000	0.011983
2162.000000	0.012083
2161.000000	0.012181
2160.000000	0.012278
2159.000000	0.012352
2158.000000	0.012412
2157.000000	0.012496
2156.000000	0.012599
2155.000000	0.012685
2154.000000	0.012748
2153.000000	0.012813
2152.000000	0.012876
2151.000000	0.012913
2150.000000	0.012936
2149.000000	0.012984
2148.000000	0.013054
2147.000000	0.013110
2146.000000	0.013147
2145.000000	0.013193
2144.000000	0.013241
2143.000000	0.013259
2142.000000	0.013256
2141.000000	0.013274
2140.000000	0.013317
2139.000000	0.013355
2138.000000	0.013386
2137.000000	0.013433
2136.000000	0.013486
2135.000000	0.013505
2134.000000	0.013494
2133.000000	0.013497
2132.000000	0.013518
2131.000000	0.013526
2130.000000	0.013525
2129.000000	0.013544
2128.000000	0.013575
2127.000000	0.013579
2126.000000	0.013560
2125.000000	0.013558
2124.000000	0.013578
2123.000000	0.013587
2122.000000	0.013583
2121.000000	0.013596
2120.000000	0.013617
2119.000000	0.013608
2118.000000	0.013578
2117.000000	0.013568
2116.000000	0.013585
2115.000000	0.013590
2114.000000	0.013580
2113.000000	0.013585
2112.000000	0.013601
2111.000000	0.013592
2110.000000	0.013560
2109.000000	0.013546
2108.000000	0.013551
2107.000000	0.013542
2106.000000	0.013522
2105.000000	0.013522
2104.000000	0.013538
2103.000000	0.013533
2102.000000	0.013504
2101.000000	0.013490
2100.000000	0.013492
2099.000000	0.013478
2098.000000	0.013454
2097.000000	0.013455
2096.000000	0.013473
2095.000000	0.013461
2094.000000	0.013417
2093.000000	0.013385
2092.000000	0.013382
2091.000000	0.013382
2090.000000	0.013383
2089.000000	0.013407
2088.000000	0.013441
2087.000000	0.013448
2086.000000	0.013429
2085.000000	0.013421
2084.000000	0.013426
2083.000000	0.013412
2082.000000	0.013388
2081.000000	0.013394
2080.000000	0.013428
2079.000000	0.013450
2078.000000	0.013455
2077.000000	0.013474
2076.000000	0.013504
2075.000000	0.013510
2074.000000	0.013499
2073.000000	0.013511
2072.000000	0.013547
2071.000000	0.013566
2070.000000	0.013558
2069.000000	0.013553
2068.000000	0.013561
2067.000000	0.013572
2066.000000	0.013602
2065.000000	0.013667
2064.000000	0.013728
2063.000000	0.013734
2062.000000	0.013707
2061.000000	0.013705
2060.000000	0.013727
2059.000000	0.013720
2058.000000	0.013681
2057.000000	0.013659
2056.000000	0.013660
2055.000000	0.013647
2054.000000	0.013619
2053.000000	0.013610
2052.000000	0.013611
2051.000000	0.013577
2050.000000	0.013509
2049.000000	0.013453
2048.000000	0.013415
2047.000000	0.013359
2046.000000	0.013280
2045.000000	0.013214
2044.000000	0.013163
2043.000000	0.013100
2042.000000	0.013027
2041.000000	0.012967
2040.000000	0.012899
2039.000000	0.012784
2038.000000	0.012644
2037.000000	0.012533
2036.000000	0.012443
2035.000000	0.012322
2034.000000	0.012165
2033.000000	0.012017
2032.000000	0.011878
2031.000000	0.011711
2030.000000	0.011528
2029.000000	0.011373
2028.000000	0.011238
2027.000000	0.011070
2026.000000	0.010867
2025.000000	0.010677
2024.000000	0.010503
2023.000000	0.010301
2022.000000	0.010069
2021.000000	0.009861
2020.000000	0.009708
2019.000000	0.009598
2018.000000	0.009519
2017.000000	0.009454
2016.000000	0.009340
2015.000000	0.009130
2014.000000	0.008879
2013.000000	0.008679
2012.000000	0.008541
2011.000000	0.008406
2010.000000	0.008264
2009.000000	0.008151
2008.000000	0.008056
2007.000000	0.007927
2006.000000	0.007772
2005.000000	0.007648
2004.000000	0.007560
2003.000000	0.007462
2002.000000	0.007351
2001.000000	0.007269
2000.000000	0.007207
1999.000000	0.007115
1998.000000	0.006986
1997.000000	0.006860
1996.000000	0.006757
1995.000000	0.006693
1994.000000	0.006720
1993.000000	0.006851
1992.000000	0.006961
1991.000000	0.006911
1990.000000	0.006737
1989.000000	0.006591
1988.000000	0.006522
1987.000000	0.006459
1986.000000	0.006374
1985.000000	0.006318
1984.000000	0.006302
1983.000000	0.006271
1982.000000	0.006220
1981.000000	0.006199
1980.000000	0.006209
1979.000000	0.006199
1978.000000	0.006169
1977.000000	0.006168
1976.000000	0.006191
1975.000000	0.006180
1974.000000	0.006134
1973.000000	0.006107
1972.000000	0.006098
1971.000000	0.006064
1970.000000	0.006038
1969.000000	0.006104
1968.000000	0.006250
1967.000000	0.006349
1966.000000	0.006328
1965.000000	0.006242
1964.000000	0.006162
1963.000000	0.006096
1962.000000	0.006058
1961.000000	0.006078
1960.000000	0.006131
1959.000000	0.006143
1958.000000	0.006111
1957.000000	0.006103
1956.000000	0.006131
1955.000000	0.006138
1954.000000	0.006116
1953.000000	0.006121
1952.000000	0.006158
1951.000000	0.006165
1950.000000	0.006134
1949.000000	0.006118
1948.000000	0.006113
1947.000000	0.006081
1946.000000	0.006077
1945.000000	0.006221
1944.000000	0.006506
1943.000000	0.006757
1942.000000	0.006809
1941.000000	0.006672
1940.000000	0.006455
1939.000000	0.006243
1938.000000	0.006085
1937.000000	0.006021
1936.000000	0.006027
1935.000000	0.006041
1934.000000	0.006053
1933.000000	0.006101
1932.000000	0.006164
1931.000000	0.006173
1930.000000	0.006138
1929.000000	0.006126
1928.000000	0.006140
1927.000000	0.006128
1926.000000	0.006137
1925.000000	0.006291
1924.000000	0.006583
1923.000000	0.006851
1922.000000	0.007011
1921.000000	0.007193
1920.000000	0.007521
1919.000000	0.007885
1918.000000	0.008079
1917.000000	0.008042
1916.000000	0.007863
1915.000000	0.007669
1914.000000	0.007556
1913.000000	0.007571
1912.000000	0.007676
1911.000000	0.007798
1910.000000	0.007916
1909.000000	0.008043
1908.000000	0.008137
1907.000000	0.008139
1906.000000	0.008082
1905.000000	0.008055
1904.000000	0.008065
1903.000000	0.008049
1902.000000	0.008007
1901.000000	0.007997
1900.000000	0.008018
1899.000000	0.008021
1898.000000	0.008043
1897.000000	0.008171
1896.000000	0.008372
1895.000000	0.008499
1894.000000	0.008522
1893.000000	0.008597
1892.000000	0.008840
1891.000000	0.009181
1890.000000	0.009471
1889.000000	0.009601
1888.000000	0.009551
1887.000000	0.009406
1886.000000	0.009322
1885.000000	0.009389
1884.000000	0.009537
1883.000000	0.009647
1882.000000	0.009727
1881.000000	0.009871
1880.000000	0.010086
1879.000000	0.010288
1878.000000	0.010457
1877.000000	0.010655
1876.000000	0.010870
1875.000000	0.011012
1874.000000	0.011109
1873.000000	0.011360
1872.000000	0.011910
1871.000000	0.012684
1870.000000	0.013459
1869.000000	0.014029
1868.000000	0.014228
1867.000000	0.014036
1866.000000	0.013681
1865.000000	0.013440
1864.000000	0.013376
1863.000000	0.013406
1862.000000	0.013506
1861.000000	0.013723
1860.000000	0.014011
1859.000000	0.014259
1858.000000	0.014456
1857.000000	0.014681
1856.000000	0.014934
1855.000000	0.015147
1854.000000	0.015338
1853.000000	0.015576
1852.000000	0.015859
1851.000000	0.016136
1850.000000	0.016434
1849.000000	0.016850
1848.000000	0.017442
1847.000000	0.018250
1846.000000	0.019294
1845.000000	0.020354
1844.000000	0.021045
1843.000000	0.021202
1842.000000	0.021055
1841.000000	0.020981
1840.000000	0.021158
1839.000000	0.021510
1838.000000	0.021963
1837.000000	0.022520
1836.000000	0.023106
1835.000000	0.023632
1834.000000	0.024233
1833.000000	0.025180
1832.000000	0.026487
1831.000000	0.027778
1830.000000	0.028682
1829.000000	0.029202
1828.000000	0.029628
1827.000000	0.030206
1826.000000	0.030952
1825.000000	0.031697
1824.000000	0.032248
1823.000000	0.032585
1822.000000	0.032916
1821.000000	0.033457
1820.000000	0.034211
1819.000000	0.035047
1818.000000	0.035922
1817.000000	0.036859
1816.000000	0.037779
1815.000000	0.038608
1814.000000	0.039487
1813.000000	0.040623
1812.000000	0.041950
1811.000000	0.043165
1810.000000	0.044157
1809.000000	0.045101
1808.000000	0.046106
1807.000000	0.047093
1806.000000	0.048072
1805.000000	0.049224
1804.000000	0.050680
1803.000000	0.052399
1802.000000	0.054251
1801.000000	0.056030
1800.000000	0.057465
1799.000000	0.058468
1798.000000	0.059347
1797.000000	0.060508
1796.000000	0.062087
1795.000000	0.064041
1794.000000	0.066343
1793.000000	0.068891
1792.000000	0.071322
1791.000000	0.073177
1790.000000	0.074460
1789.000000	0.075670
1788.000000	0.077248
1787.000000	0.079298
1786.000000	0.081755
1785.000000	0.084471
1784.000000	0.087195
1783.000000	0.089802
1782.000000	0.092469
1781.000000	0.095435
1780.000000	0.098630
1779.000000	0.101825
1778.000000	0.105038
1777.000000	0.108426
1776.000000	0.112074
1775.000000	0.116202
1774.000000	0.121209
1773.000000	0.127159
1772.000000	0.133405
1771.000000	0.139074
1770.000000	0.144206
1769.000000	0.149666
1768.000000	0.155824
1767.000000	0.162181
1766.000000	0.168362
1765.000000	0.174791
1764.000000	0.182120
1763.000000	0.190455
1762.000000	0.199316
1761.000000	0.208076
1760.000000	0.216364
1759.000000	0.224368
1758.000000	0.232670
1757.000000	0.241425
1756.000000	0.249874
1755.000000	0.257223
1754.000000	0.263904
1753.000000	0.271193
1752.000000	0.279641
1751.000000	0.288438
1750.000000	0.296464
1749.000000	0.303327
1748.000000	0.309097
1747.000000	0.313958
1746.000000	0.318355
1745.000000	0.322761
1744.000000	0.327180
1743.000000	0.331236
1742.000000	0.334807
1741.000000	0.338030
1740.000000	0.340637
1739.000000	0.342110
1738.000000	0.342482
1737.000000	0.342599
1736.000000	0.343287
1735.000000	0.344181
1734.000000	0.344573
1733.000000	0.344459
1732.000000	0.343811
1731.000000	0.342491
1730.000000	0.340767
1729.000000	0.339048
1728.000000	0.337422
1727.000000	0.335814
1726.000000	0.334371
1725.000000	0.333302
1724.000000	0.332478
1723.000000	0.331587
1722.000000	0.330648
1721.000000	0.329936
1720.000000	0.329528
1719.000000	0.329248
1718.000000	0.329264
1717.000000	0.329870
1716.000000	0.330525
1715.000000	0.330387
1714.000000	0.329485
1713.000000	0.328551
1712.000000	0.328021
1711.000000	0.327861
1710.000000	0.328149
1709.000000	0.329159
1708.000000	0.330834
1707.000000	0.332755
1706.000000	0.334692
1705.000000	0.336630
1704.000000	0.338516
1703.000000	0.340953
1702.000000	0.345074
1701.000000	0.350323
1700.000000	0.354865
1699.000000	0.357684
1698.000000	0.359818
1697.000000	0.363569
1696.000000	0.369469
1695.000000	0.375722
1694.000000	0.380903
1693.000000	0.385211
1692.000000	0.389579
1691.000000	0.394600
1690.000000	0.400131
1689.000000	0.405520
1688.000000	0.410321
1687.000000	0.415343
1686.000000	0.422383
1685.000000	0.432222
1684.000000	0.443087
1683.000000	0.451748
1682.000000	0.457695
1681.000000	0.463016
1680.000000	0.469124
1679.000000	0.475902
1678.000000	0.483219
1677.000000	0.491732
1676.000000	0.501568
1675.000000	0.511482
1674.000000	0.520283
1673.000000	0.528275
1672.000000	0.536559
1671.000000	0.545743
1670.000000	0.555733
1669.000000	0.565924
1668.000000	0.575331
1667.000000	0.583366
1666.000000	0.590717
1665.000000	0.598783
1664.000000	0.608046
1663.000000	0.617575
1662.000000	0.626259
1661.000000	0.633942
1660.000000	0.640986
1659.000000	0.647437
1658.000000	0.653153
1657.000000	0.658252
1656.000000	0.663492
1655.000000	0.669974
1654.000000	0.678008
1653.000000	0.686624
1652.000000	0.693952
1651.000000	0.698678
1650.000000	0.701380
1649.000000	0.704038
1648.000000	0.708082
1647.000000	0.712910
1646.000000	0.716991
1645.000000	0.720225
1644.000000	0.723107
1643.000000	0.725568
1642.000000	0.727876
1641.000000	0.730708
1640.000000	0.734061
1639.000000	0.737306
1638.000000	0.740598
1637.000000	0.744910
1636.000000	0.750037
1635.000000	0.753946
1634.000000	0.755688
1633.000000	0.756426
1632.000000	0.757301
1631.000000	0.758480
1630.000000	0.759774
1629.000000	0.761193
1628.000000	0.762600
1627.000000	0.763502
1626.000000	0.763858
1625.000000	0.764241
1624.000000	0.764688
1623.000000	0.764337
1622.000000	0.762680
1621.000000	0.760242
1620.000000	0.757621
1619.000000	0.754867
1618.000000	0.751730
1617.000000	0.748040
1616.000000	0.743719
1615.000000	0.738451
1614.000000	0.732092
1613.000000	0.725132
1612.000000	0.718049
1611.000000	0.710719
1610.000000	0.702934
1609.000000	0.694934
1608.000000	0.686936
1607.000000	0.678707
1606.000000	0.669976
1605.000000	0.660865
1604.000000	0.651545
1603.000000	0.641855
1602.000000	0.631648
1601.000000	0.621168
1600.000000	0.610726
1599.000000	0.600292
1598.000000	0.589655
1597.000000	0.578789
1596.000000	0.567720
1595.000000	0.556270
1594.000000	0.544252
1593.000000	0.531743
1592.000000	0.518947
1591.000000	0.505905
1590.000000	0.492583
1589.000000	0.479133
1588.000000	0.465797
1587.000000	0.452682
1586.000000	0.439794
1585.000000	0.427219
1584.000000	0.415079
1583.000000	0.403386
1582.000000	0.392062
1581.000000	0.381095
1580.000000	0.370617
1579.000000	0.360776
1578.000000	0.351493
1577.000000	0.342246
1576.000000	0.332774
1575.000000	0.323861
1574.000000	0.316164
1573.000000	0.309540
1572.000000	0.303697
1571.000000	0.298061
1570.000000	0.291908
1569.000000	0.285238
1568.000000	0.278868
1567.000000	0.273447
1566.000000	0.268794
1565.000000	0.264283
1564.000000	0.259670
1563.000000	0.255551
1562.000000	0.253240
1561.000000	0.253388
1560.000000	0.253936
1559.000000	0.252900
1558.000000	0.249868
1557.000000	0.246129
1556.000000	0.242978
1555.000000	0.240699
1554.000000	0.239063
1553.000000	0.237723
1552.000000	0.236663
1551.000000	0.235994
1550.000000	0.235542
1549.000000	0.234895
1548.000000	0.234080
1547.000000	0.233616
1546.000000	0.233763
1545.000000	0.234262
1544.000000	0.234758
1543.000000	0.235185
1542.000000	0.235660
1541.000000	0.236262
1540.000000	0.236794
1539.000000	0.236974
1538.000000	0.237218
1537.000000	0.237885
1536.000000	0.239201
1535.000000	0.241490
1534.000000	0.244415
1533.000000	0.247070
1532.000000	0.248942
1531.000000	0.250528
1530.000000	0.252562
1529.000000	0.255176
1528.000000	0.258189
1527.000000	0.261518
1526.000000	0.264957
1525.000000	0.268121
1524.000000	0.271121
1523.000000	0.274888
1522.000000	0.280241
1521.000000	0.286504
1520.000000	0.292119
1519.000000	0.296600
1518.000000	0.300464
1517.000000	0.303883
1516.000000	0.306225
1515.000000	0.307055
1514.000000	0.306734
1513.000000	0.305659
1512.000000	0.303809
1511.000000	0.301201
1510.000000	0.298204
1509.000000	0.295215
1508.000000	0.292107
1507.000000	0.287676
1506.000000	0.280554
1505.000000	0.272357
1504.000000	0.264977
1503.000000	0.258401
1502.000000	0.252414
1501.000000	0.246890
1500.000000	0.241515
1499.000000	0.235998
1498.000000	0.230437
1497.000000	0.225188
1496.000000	0.220496
1495.000000	0.216530
1494.000000	0.213544
1493.000000	0.211783
1492.000000	0.211216
1491.000000	0.211482
1490.000000	0.212323
1489.000000	0.213565
1488.000000	0.214921
1487.000000	0.216321
1486.000000	0.218096
1485.000000	0.220627
1484.000000	0.224066
1483.000000	0.228437
1482.000000	0.233770
1481.000000	0.239935
1480.000000	0.246645
1479.000000	0.253915
1478.000000	0.262115
1477.000000	0.271359
1476.000000	0.281302
1475.000000	0.291978
1474.000000	0.304247
1473.000000	0.318475
1472.000000	0.333069
1471.000000	0.345940
1470.000000	0.356889
1469.000000	0.366943
1468.000000	0.376756
1467.000000	0.386348
1466.000000	0.395387
1465.000000	0.403157
1464.000000	0.408891
1463.000000	0.412726
1462.000000	0.415682
1461.000000	0.418570
1460.000000	0.421736
1459.000000	0.425617
1458.000000	0.430653
1457.000000	0.435945
1456.000000	0.439588
1455.000000	0.441132
1454.000000	0.441472
1453.000000	0.441442
1452.000000	0.441431
1451.000000	0.441492
1450.000000	0.441640
1449.000000	0.441786
1448.000000	0.441631
1447.000000	0.440997
1446.000000	0.440118
1445.000000	0.439370
1444.000000	0.438946
1443.000000	0.438883
1442.000000	0.439158
1441.000000	0.439704
1440.000000	0.440603
1439.000000	0.442256
1438.000000	0.444922
1437.000000	0.447994
1436.000000	0.450380
1435.000000	0.451745
1434.000000	0.452777
1433.000000	0.454270
1432.000000	0.456409
1431.000000	0.458827
1430.000000	0.461085
1429.000000	0.462889
1428.000000	0.464092
1427.000000	0.464861
1426.000000	0.465553
1425.000000	0.466211
1424.000000	0.466429
1423.000000	0.465926
1422.000000	0.465102
1421.000000	0.464515
1420.000000	0.463930
1419.000000	0.462649
1418.000000	0.460411
1417.000000	0.457443
1416.000000	0.454124
1415.000000	0.450845
1414.000000	0.447889
1413.000000	0.445310
1412.000000	0.443012
1411.000000	0.440914
1410.000000	0.438989
1409.000000	0.437220
1408.000000	0.435616
1407.000000	0.434260
1406.000000	0.433178
1405.000000	0.432158
1404.000000	0.430939
1403.000000	0.429634
1402.000000	0.428670
1401.000000	0.428265
1400.000000	0.428230
1399.000000	0.428296
1398.000000	0.428451
1397.000000	0.428933
1396.000000	0.429952
1395.000000	0.431415
1394.000000	0.432958
1393.000000	0.434387
1392.000000	0.435916
1391.000000	0.437955
1390.000000	0.440839
1389.000000	0.444668
1388.000000	0.449206
1387.000000	0.453920
1386.000000	0.458276
1385.000000	0.462120
1384.000000	0.465682
1383.000000	0.469210
1382.000000	0.472730
1381.000000	0.476108
1380.000000	0.479206
1379.000000	0.481936
1378.000000	0.484247
1377.000000	0.486132
1376.000000	0.487638
1375.000000	0.488827
1374.000000	0.489591
1373.000000	0.489635
1372.000000	0.488848
1371.000000	0.487459
1370.000000	0.485715
1369.000000	0.483572
1368.000000	0.480833
1367.000000	0.477534
1366.000000	0.473993
1365.000000	0.470465
1364.000000	0.466956
1363.000000	0.463376
1362.000000	0.459611
1361.000000	0.455582
1360.000000	0.451399
1359.000000	0.447371
1358.000000	0.443779
1357.000000	0.440691
1356.000000	0.438029
1355.000000	0.435773
1354.000000	0.433980
1353.000000	0.432659
1352.000000	0.431771
1351.000000	0.431376
1350.000000	0.431597
1349.000000	0.432468
1348.000000	0.433941
1347.000000	0.436021
1346.000000	0.438756
1345.000000	0.442067
1344.000000	0.445781
1343.000000	0.449840
1342.000000	0.454354
1341.000000	0.459428
1340.000000	0.464983
1339.000000	0.470764
1338.000000	0.476495
1337.000000	0.482026
1336.000000	0.487325
1335.000000	0.492427
1334.000000	0.497399
1333.000000	0.502250
1332.000000	0.506910
1331.000000	0.511329
1330.000000	0.515532
1329.000000	0.519543
1328.000000	0.523361
1327.000000	0.527077
1326.000000	0.530910
1325.000000	0.535035
1324.000000	0.539491
1323.000000	0.544281
1322.000000	0.549436
1321.000000	0.554826
1320.000000	0.559994
1319.000000	0.564238
1318.000000	0.566800
1317.000000	0.567025
1316.000000	0.564475
1315.000000	0.559132
1314.000000	0.551465
1313.000000	0.542164
1312.000000	0.531942
1311.000000	0.521513
1310.000000	0.511499
1309.000000	0.502249
1308.000000	0.493836
1307.000000	0.486279
1306.000000	0.479628
1305.000000	0.473841
1304.000000	0.468746
1303.000000	0.464199
1302.000000	0.460133
1301.000000	0.456483
1300.000000	0.453215
1299.000000	0.450404
1298.000000	0.448206
1297.000000	0.446704
1296.000000	0.445871
1295.000000	0.445692
1294.000000	0.446162
1293.000000	0.447213
1292.000000	0.448734
1291.000000	0.450685
1290.000000	0.453096
1289.000000	0.455919
1288.000000	0.458995
1287.000000	0.462171
1286.000000	0.465355
1285.000000	0.468445
1284.000000	0.471305
1283.000000	0.473859
1282.000000	0.476130
1281.000000	0.478182
1280.000000	0.480083
1279.000000	0.481968
1278.000000	0.483979
1277.000000	0.486137
1276.000000	0.488336
1275.000000	0.490496
1274.000000	0.492623
1273.000000	0.494716
1272.000000	0.496717
1271.000000	0.498604
1270.000000	0.500402
1269.000000	0.502071
1268.000000	0.503493
1267.000000	0.504610
1266.000000	0.505476
1265.000000	0.506125
1264.000000	0.506516
1263.000000	0.506653
1262.000000	0.506622
1261.000000	0.506474
1260.000000	0.506177
1259.000000	0.505730
1258.000000	0.505217
1257.000000	0.504681
1256.000000	0.504095
1255.000000	0.503482
1254.000000	0.502945
1253.000000	0.502539
1252.000000	0.502210
1251.000000	0.501909
1250.000000	0.501643
1249.000000	0.501370
1248.000000	0.500985
1247.000000	0.500433
1246.000000	0.499744
1245.000000	0.498917
1244.000000	0.497886
1243.000000	0.496645
1242.000000	0.495258
1241.000000	0.493736
1240.000000	0.492009
1239.000000	0.490049
1238.000000	0.487923
1237.000000	0.485662
1236.000000	0.483220
1235.000000	0.480561
1234.000000	0.477693
1233.000000	0.474589
1232.000000	0.471187
1231.000000	0.467491
1230.000000	0.463572
1229.000000	0.459470
1228.000000	0.455193
1227.000000	0.450813
1226.000000	0.446433
1225.000000	0.442085
1224.000000	0.437746
1223.000000	0.433471
1222.000000	0.429365
1221.000000	0.425464
1220.000000	0.421743
1219.000000	0.418219
1218.000000	0.414943
1217.000000	0.411905
1216.000000	0.409050
1215.000000	0.406380
1214.000000	0.403945
1213.000000	0.401747
1212.000000	0.399768
1211.000000	0.398038
1210.000000	0.396576
1209.000000	0.395299
1208.000000	0.394080
1207.000000	0.392861
1206.000000	0.391623
1205.000000	0.390283
1204.000000	0.388730
1203.000000	0.386937
1202.000000	0.384935
1201.000000	0.382731
1200.000000	0.380329
1199.000000	0.377825
1198.000000	0.375358
1197.000000	0.373036
1196.000000	0.370964
1195.000000	0.369311
1194.000000	0.368235
1193.000000	0.367787
1192.000000	0.367968
1191.000000	0.368847
1190.000000	0.370492
1189.000000	0.372896
1188.000000	0.376008
1187.000000	0.379822
1186.000000	0.384359
1185.000000	0.389561
1184.000000	0.395381
1183.000000	0.401915
1182.000000	0.409347
1181.000000	0.417789
1180.000000	0.427178
1179.000000	0.437396
1178.000000	0.448402
1177.000000	0.460238
1176.000000	0.473030
1175.000000	0.486946
1174.000000	0.502120
1173.000000	0.518563
1172.000000	0.536144
1171.000000	0.554731
1170.000000	0.574234
1169.000000	0.594480
1168.000000	0.615090
1167.000000	0.635600
1166.000000	0.655573
1165.000000	0.674563
1164.000000	0.692030
1163.000000	0.707498
1162.000000	0.720865
1161.000000	0.732215
1160.000000	0.741613
1159.000000	0.749209
1158.000000	0.755306
1157.000000	0.760192
1156.000000	0.763835
1155.000000	0.766167
1154.000000	0.767399
1153.000000	0.767774
1152.000000	0.767341
1151.000000	0.766116
1150.000000	0.764316
1149.000000	0.762149
1148.000000	0.759545
1147.000000	0.756426
1146.000000	0.752930
1145.000000	0.749220
1144.000000	0.745295
1143.000000	0.741232
1142.000000	0.737367
1141.000000	0.734026
1140.000000	0.731302
1139.000000	0.729289
1138.000000	0.728303
1137.000000	0.728607
1136.000000	0.730175
1135.000000	0.732921
1134.000000	0.736904
1133.000000	0.742177
1132.000000	0.748532
1131.000000	0.755685
1130.000000	0.763528
1129.000000	0.771942
1128.000000	0.780613
1127.000000	0.789243
1126.000000	0.797813
1125.000000	0.806371
1124.000000	0.814754
1123.000000	0.822827
1122.000000	0.830785
1121.000000	0.838896
1120.000000	0.847148
1119.000000	0.855485
1118.000000	0.864127
1117.000000	0.873288
1116.000000	0.882771
1115.000000	0.892194
1114.000000	0.901430
1113.000000	0.910393
1112.000000	0.918699
1111.000000	0.926002
1110.000000	0.932392
1109.000000	0.938056
1108.000000	0.942772
1107.000000	0.946257
1106.000000	0.948703
1105.000000	0.950367
1104.000000	0.951118
1103.000000	0.950821
1102.000000	0.949872
1101.000000	0.948820
1100.000000	0.947783
1099.000000	0.946781
1098.000000	0.946220
1097.000000	0.946548
1096.000000	0.947742
1095.000000	0.949685
1094.000000	0.952658
1093.000000	0.957000
1092.000000	0.962618
1091.000000	0.969273
1090.000000	0.977117
1089.000000	0.986328
1088.000000	0.996564
1087.000000	1.007344
1086.000000	1.018630
1085.000000	1.030503
1084.000000	1.042527
1083.000000	1.054125
1082.000000	1.065231
1081.000000	1.075888
1080.000000	1.085450
1079.000000	1.093063
1078.000000	1.098568
1077.000000	1.102064
1076.000000	1.103226
1075.000000	1.101821
1074.000000	1.098515
1073.000000	1.094298
1072.000000	1.089581
1071.000000	1.084716
1070.000000	1.080688
1069.000000	1.078481
1068.000000	1.078223
1067.000000	1.079698
1066.000000	1.083093
1065.000000	1.088594
1064.000000	1.095669
1063.000000	1.103507
1062.000000	1.111870
1061.000000	1.120689
1060.000000	1.129345
1059.000000	1.137221
1058.000000	1.144550
1057.000000	1.151776
1056.000000	1.158558
1055.000000	1.164305
1054.000000	1.169212
1053.000000	1.173767
1052.000000	1.177690
1051.000000	1.180521
1050.000000	1.182719
1049.000000	1.184993
1048.000000	1.187155
1047.000000	1.188739
1046.000000	1.190133
1045.000000	1.192002
1044.000000	1.194223
1043.000000	1.196474
1042.000000	1.199244
1041.000000	1.203188
1040.000000	1.207984
1039.000000	1.212850
1038.000000	1.217673
1037.000000	1.222597
1036.000000	1.227036
1035.000000	1.230262
1034.000000	1.232475
1033.000000	1.234215
1032.000000	1.235255
1031.000000	1.235153
1030.000000	1.234330
1029.000000	1.233395
1028.000000	1.232074
1027.000000	1.229816
1026.000000	1.226856
1025.000000	1.223678
1024.000000	1.219994
1023.000000	1.215342
1022.000000	1.210012
1021.000000	1.204389
1020.000000	1.198107
1019.000000	1.190700
1018.000000	1.182491
1017.000000	1.173916
1016.000000	1.164639
1015.000000	1.154248
1014.000000	1.143071
1013.000000	1.131589
1012.000000	1.119667
1011.000000	1.107077
1010.000000	1.094185
1009.000000	1.081354
1008.000000	1.068356
1007.000000	1.054966
1006.000000	1.041511
1005.000000	1.028318
1004.000000	1.015127
1003.000000	1.001591
1002.000000	0.987868
1001.000000	0.974195
1000.000000	0.960437
999.000000	0.946453
998.000000	0.932469
997.000000	0.918680
996.000000	0.904826
995.000000	0.890559
994.000000	0.875800
993.000000	0.860467
992.000000	0.844293
991.000000	0.827088
990.000000	0.808974
989.000000	0.790037
988.000000	0.770077
987.000000	0.748990
986.000000	0.726895
985.000000	0.703932
984.000000	0.680156
983.000000	0.655736
982.000000	0.631084
981.000000	0.606544
980.000000	0.582333
979.000000	0.558708
978.000000	0.535949
977.000000	0.514193
976.000000	0.493453
975.000000	0.473801
974.000000	0.455351
973.000000	0.438101
972.000000	0.421943
971.000000	0.406828
970.000000	0.392742
969.000000	0.379583
968.000000	0.367224
967.000000	0.355592
966.000000	0.344627
965.000000	0.334201
964.000000	0.324187
963.000000	0.314570
962.000000	0.305345
961.000000	0.296427
960.000000	0.287743
959.000000	0.279322
958.000000	0.271203
957.000000	0.263326
956.000000	0.255619
955.000000	0.248107
954.000000	0.240827
953.000000	0.233758
952.000000	0.226905
951.000000	0.220368
950.000000	0.214258
949.000000	0.208609
948.000000	0.203488
947.000000	0.199021
946.000000	0.195255
945.000000	0.192087
944.000000	0.189377
943.000000	0.187043
942.000000	0.184965
941.000000	0.182939
940.000000	0.180837
939.000000	0.178694
938.000000	0.176578
937.000000	0.174490
936.000000	0.172431
935.000000	0.170476
934.000000	0.168667
933.000000	0.166966
932.000000	0.165367
931.000000	0.163931
930.000000	0.162663
929.000000	0.161449
928.000000	0.160202
927.000000	0.158925
926.000000	0.157586
925.000000	0.156044
924.000000	0.154197
923.000000	0.152065
922.000000	0.149674
921.000000	0.146982
920.000000	0.143986
919.000000	0.140781
918.000000	0.137434
917.000000	0.133913
916.000000	0.130215
915.000000	0.126401
914.000000	0.122460
913.000000	0.118270
912.000000	0.113781
911.000000	0.109105
910.000000	0.104366
909.000000	0.099608
908.000000	0.094935
907.000000	0.090569
906.000000	0.086683
905.000000	0.083305
904.000000	0.080441
903.000000	0.078132
902.000000	0.076340
901.000000	0.074890
900.000000	0.073631
899.000000	0.072502
898.000000	0.071387
897.000000	0.070087
896.000000	0.068496
895.000000	0.066660
894.000000	0.064619
893.000000	0.062318
892.000000	0.059743
891.000000	0.056985
890.000000	0.054089
889.000000	0.050994
888.000000	0.047703
887.000000	0.044336
886.000000	0.040990
885.000000	0.037677
884.000000	0.034471
883.000000	0.031536
882.000000	0.028945
881.000000	0.026625
880.000000	0.024552
879.000000	0.022832
878.000000	0.021513
877.000000	0.020514
876.000000	0.019786
875.000000	0.019378
874.000000	0.019276
873.000000	0.019336
872.000000	0.019472
871.000000	0.019728
870.000000	0.020125
869.000000	0.020607
868.000000	0.021168
867.000000	0.021879
866.000000	0.022700
865.000000	0.023425
864.000000	0.023884
863.000000	0.024044
862.000000	0.023890
861.000000	0.023386
860.000000	0.022619
859.000000	0.021786
858.000000	0.020974
857.000000	0.020088
856.000000	0.019037
855.000000	0.017852
854.000000	0.016546
853.000000	0.015070
852.000000	0.013458
851.000000	0.011859
850.000000	0.010354
849.000000	0.008910
848.000000	0.007551
847.000000	0.006406
846.000000	0.005534
845.000000	0.004864
844.000000	0.004398
843.000000	0.004283
842.000000	0.004613
841.000000	0.005337
840.000000	0.006384
839.000000	0.007749
838.000000	0.009360
837.000000	0.011038
836.000000	0.012633
835.000000	0.014057
834.000000	0.015133
833.000000	0.015620
832.000000	0.015455
831.000000	0.014830
830.000000	0.013985
829.000000	0.013074
828.000000	0.012287
827.000000	0.011881
826.000000	0.011974
825.000000	0.012457
824.000000	0.013199
823.000000	0.014167
822.000000	0.015297
821.000000	0.016451
820.000000	0.017580
819.000000	0.018751
818.000000	0.019974
817.000000	0.021149
816.000000	0.022247
815.000000	0.023350
814.000000	0.024484
813.000000	0.025587
812.000000	0.026700
811.000000	0.028031
810.000000	0.029732
809.000000	0.031796
808.000000	0.034201
807.000000	0.037000
806.000000	0.040188
805.000000	0.043651
804.000000	0.047312
803.000000	0.051184
802.000000	0.055203
801.000000	0.059170
800.000000	0.062914
799.000000	0.066356
798.000000	0.069384
797.000000	0.071861
796.000000	0.073851
795.000000	0.075691
794.000000	0.077749
793.000000	0.080247
792.000000	0.083352
791.000000	0.087306
790.000000	0.092374
789.000000	0.098811
788.000000	0.106954
787.000000	0.117094
786.000000	0.129144
785.000000	0.142428
784.000000	0.155799
783.000000	0.167840
782.000000	0.177063
781.000000	0.182295
780.000000	0.183217
779.000000	0.180552
778.000000	0.175597
777.000000	0.169653
776.000000	0.163759
775.000000	0.158611
774.000000	0.154470
773.000000	0.151198
772.000000	0.148554
771.000000	0.146389
770.000000	0.144615
769.000000	0.143146
768.000000	0.141986
767.000000	0.141182
766.000000	0.140617
765.000000	0.139981
764.000000	0.139011
763.000000	0.137622
762.000000	0.135760
761.000000	0.133319
760.000000	0.130294
759.000000	0.126861
758.000000	0.123184
757.000000	0.119297
756.000000	0.115237
755.000000	0.111132
754.000000	0.107083
753.000000	0.103104
752.000000	0.099262
751.000000	0.095700
750.000000	0.092473
749.000000	0.089494
748.000000	0.086724
747.000000	0.084234
746.000000	0.082038
745.000000	0.080028
744.000000	0.078166
743.000000	0.076574
742.000000	0.075357
741.000000	0.074471
740.000000	0.073854
739.000000	0.073518
738.000000	0.073468
737.000000	0.073659
736.000000	0.074117
735.000000	0.074962
734.000000	0.076216
733.000000	0.077762
732.000000	0.079514
731.000000	0.081495
730.000000	0.083677
729.000000	0.085926
728.000000	0.088189
727.000000	0.090590
726.000000	0.093252
725.000000	0.096147
724.000000	0.099195
723.000000	0.102369
722.000000	0.105627
721.000000	0.108867
720.000000	0.112028
719.000000	0.115139
718.000000	0.118212
717.000000	0.121192
716.000000	0.124082
715.000000	0.126958
714.000000	0.129791
713.000000	0.132412
712.000000	0.134716
711.000000	0.136778
710.000000	0.138680
709.000000	0.140381
708.000000	0.141826
707.000000	0.143075
706.000000	0.144201
705.000000	0.145217
704.000000	0.146166
703.000000	0.147173
702.000000	0.148317
701.000000	0.149600
700.000000	0.151099
699.000000	0.152968
698.000000	0.155197
697.000000	0.157493
696.000000	0.159509
695.000000	0.161079
694.000000	0.162146
693.000000	0.162660
692.000000	0.162702
691.000000	0.162544
690.000000	0.162446
689.000000	0.162497
688.000000	0.162734
687.000000	0.163240
686.000000	0.164028
685.000000	0.164995
684.000000	0.166123
683.000000	0.167560
682.000000	0.169382
681.000000	0.171467
680.000000	0.173725
679.000000	0.176255
678.000000	0.179119
677.000000	0.182157
676.000000	0.185200
675.000000	0.188204
674.000000	0.191151
673.000000	0.193900
672.000000	0.196243
671.000000	0.198075
670.000000	0.199486
669.000000	0.200692
668.000000	0.201954
667.000000	0.203429
666.000000	0.204882
665.000000	0.205911
664.000000	0.206404
663.000000	0.206497
662.000000	0.206352
661.000000	0.205994
660.000000	0.205439
659.000000	0.204826
658.000000	0.204310
657.000000	0.203938
656.000000	0.203755
655.000000	0.203815
654.000000	0.204119
653.000000	0.204644
652.000000	0.205387
651.000000	0.206356
650.000000	0.207506
649.000000	0.208758
648.000000	0.210102
647.000000	0.211568
646.000000	0.213097
645.000000	0.214517
644.000000	0.215722
643.000000	0.216764
642.000000	0.217739
641.000000	0.218670
640.000000	0.219546
639.000000	0.220383
638.000000	0.221199
637.000000	0.221992
636.000000	0.222790
635.000000	0.223637
634.000000	0.224512
633.000000	0.225332
632.000000	0.226108
631.000000	0.226977
630.000000	0.228039
629.000000	0.229258
628.000000	0.230598
627.000000	0.232119
626.000000	0.233878
625.000000	0.235828
624.000000	0.237904
623.000000	0.240102
622.000000	0.242390
621.000000	0.244616
620.000000	0.246601
619.000000	0.248248
618.000000	0.249524
617.000000	0.250440
616.000000	0.251125
615.000000	0.251796
614.000000	0.252551
613.000000	0.253286
612.000000	0.253854
611.000000	0.254227
610.000000	0.254393
609.000000	0.254239
608.000000	0.253681
607.000000	0.252831
606.000000	0.251922
605.000000	0.251093
604.000000	0.250359
603.000000	0.249712
602.000000	0.249113
601.000000	0.248489
600.000000	0.247859
599.000000	0.247372
598.000000	0.247133
597.000000	0.247068
596.000000	0.247067
595.000000	0.247141
594.000000	0.247330
593.000000	0.247572
592.000000	0.247810
591.000000	0.248137
590.000000	0.248714
589.000000	0.249637
588.000000	0.250942
587.000000	0.252638
586.000000	0.254633
585.000000	0.256731
584.000000	0.258805
583.000000	0.260883
582.000000	0.262996
581.000000	0.265039
580.000000	0.266880
579.000000	0.268465
578.000000	0.269761
577.000000	0.270655
576.000000	0.271030
575.000000	0.270891
574.000000	0.270333
573.000000	0.269465
572.000000	0.268393
571.000000	0.267225
570.000000	0.265996
569.000000	0.264682
568.000000	0.263362
567.000000	0.262256
566.000000	0.261505
565.000000	0.261061
564.000000	0.260865
563.000000	0.260935
562.000000	0.261156
561.000000	0.261214
560.000000	0.260878
559.000000	0.260232
558.000000	0.259480
557.000000	0.258688
556.000000	0.257862
555.000000	0.257094
554.000000	0.256490
553.000000	0.256072
552.000000	0.255889
551.000000	0.256062
550.000000	0.256606
549.000000	0.257403
548.000000	0.258471
547.000000	0.260037
546.000000	0.262222
545.000000	0.264858
544.000000	0.267770
543.000000	0.271022
542.000000	0.274729
541.000000	0.278842
540.000000	0.283201
539.000000	0.287638
538.000000	0.291916
537.000000	0.295741
536.000000	0.298925
535.000000	0.301417
534.000000	0.303185
533.000000	0.304221
532.000000	0.304683
531.000000	0.304815
530.000000	0.304753
529.000000	0.304497
528.000000	0.304089
527.000000	0.303638
526.000000	0.303161
525.000000	0.302589
524.000000	0.301962
523.000000	0.301429
522.000000	0.300972
521.000000	0.300337
520.000000	0.299305
519.000000	0.297809
518.000000	0.295736
517.000000	0.292896
516.000000	0.289281
515.000000	0.285145
514.000000	0.280680
513.000000	0.275831
512.000000	0.270554
511.000000	0.265042
510.000000	0.259552
509.000000	0.254180
508.000000	0.248927
507.000000	0.243854
506.000000	0.239119
505.000000	0.235038
504.000000	0.232017
503.000000	0.229990
502.000000	0.227881
501.000000	0.224396
500.000000	0.219582
499.000000	0.214857
498.000000	0.211398
497.000000	0.209099
496.000000	0.207300
495.000000	0.205810
494.000000	0.204808
493.000000	0.204255
492.000000	0.203988
491.000000	0.204088
490.000000	0.204681
489.000000	0.205642
488.000000	0.206869
487.000000	0.208512
486.000000	0.210638
485.000000	0.212990
484.000000	0.215366
483.000000	0.217874
482.000000	0.220506
481.000000	0.222890
480.000000	0.224768
479.000000	0.226334
478.000000	0.227756
477.000000	0.228802
476.000000	0.229261
475.000000	0.229323
474.000000	0.229213
473.000000	0.228746
472.000000	0.227603
471.000000	0.225729
470.000000	0.223187
469.000000	0.219943
468.000000	0.216059
467.000000	0.211850
466.000000	0.207490
465.000000	0.202808
464.000000	0.197773
463.000000	0.192779
462.000000	0.188163
461.000000	0.183793
460.000000	0.179457
459.000000	0.175149
458.000000	0.170660
457.000000	0.165511
456.000000	0.159758
455.000000	0.154199
454.000000	0.149265
453.000000	0.144573
452.000000	0.139877
451.000000	0.135626
450.000000	0.132155
449.000000	0.129056
448.000000	0.125961
447.000000	0.123194
446.000000	0.120994
445.000000	0.118899
444.000000	0.116502
443.000000	0.114104
442.000000	0.111987
441.000000	0.109776
440.000000	0.107231
439.000000	0.104823
438.000000	0.102840
437.000000	0.100819
436.000000	0.098461
435.000000	0.096254
434.000000	0.094449
433.000000	0.092428
432.000000	0.089809
431.000000	0.087181
430.000000	0.084953
429.000000	0.082506
428.000000	0.079338
427.000000	0.076049
426.000000	0.073259
425.000000	0.070532
424.000000	0.067334
423.000000	0.064099
422.000000	0.061327
421.000000	0.058626
420.000000	0.055482
419.000000	0.052342
418.000000	0.049443
417.000000	0.045716
416.000000	0.041109
415.000000	0.036996
414.000000	0.033871
413.000000	0.030516
412.000000	0.026164
411.000000	0.021943
410.000000	0.018706
409.000000	0.015370
408.000000	0.010983
407.000000	0.006629
406.000000	0.003486
405.000000	0.000961
404.000000	-0.001044
403.000000	-0.000791
402.000000	0.002646
401.000000	0.007198
400.000000	0.010939
