PE IR       SUBTECH     SPECTRUM    ASCII       PEDS        4.00        
   -1
G001-20C.asc
17/02/23
10:38:25.00
17/02/23
10:38:57.00
Administrator
Sample 125 By Administrator Date Thursday, February 23 2017
400.000000
#HDR
-1
-1
#GR
cm-1
A
1.0
0.0
4000.000000
-1.000000
3601
8
1.338581
-0.002253
#DATA
4000.000000	0.006396
3999.000000	0.006561
3998.000000	0.006725
3997.000000	0.006886
3996.000000	0.007044
3995.000000	0.007202
3994.000000	0.007359
3993.000000	0.007517
3992.000000	0.007672
3991.000000	0.007817
3990.000000	0.007951
3989.000000	0.008081
3988.000000	0.008218
3987.000000	0.008366
3986.000000	0.008526
3985.000000	0.008689
3984.000000	0.008851
3983.000000	0.009009
3982.000000	0.009161
3981.000000	0.009314
3980.000000	0.009474
3979.000000	0.009646
3978.000000	0.009830
3977.000000	0.010016
3976.000000	0.010193
3975.000000	0.010356
3974.000000	0.010507
3973.000000	0.010651
3972.000000	0.010790
3971.000000	0.010923
3970.000000	0.011048
3969.000000	0.011169
3968.000000	0.011295
3967.000000	0.011439
3966.000000	0.011606
3965.000000	0.011792
3964.000000	0.011981
3963.000000	0.012158
3962.000000	0.012316
3961.000000	0.012459
3960.000000	0.012597
3959.000000	0.012736
3958.000000	0.012876
3957.000000	0.013018
3956.000000	0.013171
3955.000000	0.013354
3954.000000	0.013581
3953.000000	0.013848
3952.000000	0.014132
3951.000000	0.014395
3950.000000	0.014616
3949.000000	0.014805
3948.000000	0.014987
3947.000000	0.015183
3946.000000	0.015396
3945.000000	0.015601
3944.000000	0.015757
3943.000000	0.015834
3942.000000	0.015847
3941.000000	0.015845
3940.000000	0.015878
3939.000000	0.015971
3938.000000	0.016128
3937.000000	0.016353
3936.000000	0.016649
3935.000000	0.017000
3934.000000	0.017349
3933.000000	0.017625
3932.000000	0.017802
3931.000000	0.017917
3930.000000	0.018039
3929.000000	0.018204
3928.000000	0.018403
3927.000000	0.018606
3926.000000	0.018786
3925.000000	0.018936
3924.000000	0.019080
3923.000000	0.019267
3922.000000	0.019526
3921.000000	0.019824
3920.000000	0.020085
3919.000000	0.020257
3918.000000	0.020339
3917.000000	0.020355
3916.000000	0.020322
3915.000000	0.020274
3914.000000	0.020243
3913.000000	0.020253
3912.000000	0.020317
3911.000000	0.020478
3910.000000	0.020798
3909.000000	0.021315
3908.000000	0.022002
3907.000000	0.022779
3906.000000	0.023564
3905.000000	0.024290
3904.000000	0.024913
3903.000000	0.025402
3902.000000	0.025730
3901.000000	0.025872
3900.000000	0.025809
3899.000000	0.025579
3898.000000	0.025311
3897.000000	0.025150
3896.000000	0.025162
3895.000000	0.025297
3894.000000	0.025451
3893.000000	0.025583
3892.000000	0.025738
3891.000000	0.025974
3890.000000	0.026306
3889.000000	0.026728
3888.000000	0.027210
3887.000000	0.027688
3886.000000	0.028095
3885.000000	0.028428
3884.000000	0.028736
3883.000000	0.029023
3882.000000	0.029216
3881.000000	0.029251
3880.000000	0.029175
3879.000000	0.029130
3878.000000	0.029244
3877.000000	0.029556
3876.000000	0.030014
3875.000000	0.030521
3874.000000	0.031002
3873.000000	0.031450
3872.000000	0.031912
3871.000000	0.032404
3870.000000	0.032861
3869.000000	0.033224
3868.000000	0.033535
3867.000000	0.033863
3866.000000	0.034150
3865.000000	0.034255
3864.000000	0.034168
3863.000000	0.034038
3862.000000	0.034019
3861.000000	0.034187
3860.000000	0.034561
3859.000000	0.035153
3858.000000	0.035950
3857.000000	0.036872
3856.000000	0.037762
3855.000000	0.038480
3854.000000	0.039052
3853.000000	0.039531
3852.000000	0.039805
3851.000000	0.039785
3850.000000	0.039528
3849.000000	0.039150
3848.000000	0.038781
3847.000000	0.038560
3846.000000	0.038581
3845.000000	0.038885
3844.000000	0.039447
3843.000000	0.040184
3842.000000	0.040985
3841.000000	0.041764
3840.000000	0.042450
3839.000000	0.043029
3838.000000	0.043535
3837.000000	0.043984
3836.000000	0.044328
3835.000000	0.044511
3834.000000	0.044534
3833.000000	0.044458
3832.000000	0.044363
3831.000000	0.044326
3830.000000	0.044393
3829.000000	0.044577
3828.000000	0.044889
3827.000000	0.045341
3826.000000	0.045927
3825.000000	0.046633
3824.000000	0.047417
3823.000000	0.048212
3822.000000	0.048967
3821.000000	0.049643
3820.000000	0.050210
3819.000000	0.050664
3818.000000	0.051018
3817.000000	0.051242
3816.000000	0.051294
3815.000000	0.051233
3814.000000	0.051225
3813.000000	0.051383
3812.000000	0.051678
3811.000000	0.052014
3810.000000	0.052347
3809.000000	0.052749
3808.000000	0.053343
3807.000000	0.054161
3806.000000	0.055107
3805.000000	0.056054
3804.000000	0.056912
3803.000000	0.057630
3802.000000	0.058202
3801.000000	0.058670
3800.000000	0.059085
3799.000000	0.059459
3798.000000	0.059736
3797.000000	0.059847
3796.000000	0.059805
3795.000000	0.059739
3794.000000	0.059792
3793.000000	0.060006
3792.000000	0.060325
3791.000000	0.060702
3790.000000	0.061148
3789.000000	0.061681
3788.000000	0.062280
3787.000000	0.062907
3786.000000	0.063561
3785.000000	0.064253
3784.000000	0.064981
3783.000000	0.065728
3782.000000	0.066471
3781.000000	0.067171
3780.000000	0.067791
3779.000000	0.068329
3778.000000	0.068832
3777.000000	0.069362
3776.000000	0.069961
3775.000000	0.070625
3774.000000	0.071329
3773.000000	0.072066
3772.000000	0.072857
3771.000000	0.073711
3770.000000	0.074605
3769.000000	0.075493
3768.000000	0.076326
3767.000000	0.077086
3766.000000	0.077782
3765.000000	0.078431
3764.000000	0.079077
3763.000000	0.079793
3762.000000	0.080609
3761.000000	0.081462
3760.000000	0.082282
3759.000000	0.083121
3758.000000	0.084071
3757.000000	0.085142
3756.000000	0.086294
3755.000000	0.087504
3754.000000	0.088754
3753.000000	0.089970
3752.000000	0.091157
3751.000000	0.092495
3750.000000	0.094068
3749.000000	0.095658
3748.000000	0.096979
3747.000000	0.097930
3746.000000	0.098615
3745.000000	0.099204
3744.000000	0.099802
3743.000000	0.100435
3742.000000	0.101129
3741.000000	0.101890
3740.000000	0.102672
3739.000000	0.103487
3738.000000	0.104434
3737.000000	0.105554
3736.000000	0.106713
3735.000000	0.107742
3734.000000	0.108629
3733.000000	0.109451
3732.000000	0.110230
3731.000000	0.110953
3730.000000	0.111667
3729.000000	0.112458
3728.000000	0.113367
3727.000000	0.114363
3726.000000	0.115431
3725.000000	0.116598
3724.000000	0.117870
3723.000000	0.119189
3722.000000	0.120498
3721.000000	0.121790
3720.000000	0.123100
3719.000000	0.124507
3718.000000	0.126069
3717.000000	0.127785
3716.000000	0.129636
3715.000000	0.131630
3714.000000	0.133792
3713.000000	0.136123
3712.000000	0.138592
3711.000000	0.141142
3710.000000	0.143686
3709.000000	0.146133
3708.000000	0.148440
3707.000000	0.150630
3706.000000	0.152791
3705.000000	0.155001
3704.000000	0.157283
3703.000000	0.159619
3702.000000	0.161964
3701.000000	0.164211
3700.000000	0.166216
3699.000000	0.167916
3698.000000	0.169357
3697.000000	0.170622
3696.000000	0.171818
3695.000000	0.173093
3694.000000	0.174578
3693.000000	0.176285
3692.000000	0.178126
3691.000000	0.180082
3690.000000	0.182301
3689.000000	0.184884
3688.000000	0.187644
3687.000000	0.190280
3686.000000	0.192695
3685.000000	0.194977
3684.000000	0.197254
3683.000000	0.199681
3682.000000	0.202448
3681.000000	0.205656
3680.000000	0.209201
3679.000000	0.212923
3678.000000	0.216883
3677.000000	0.221348
3676.000000	0.226400
3675.000000	0.231648
3674.000000	0.236594
3673.000000	0.241126
3672.000000	0.245439
3671.000000	0.249721
3670.000000	0.254058
3669.000000	0.258456
3668.000000	0.262842
3667.000000	0.267138
3666.000000	0.271339
3665.000000	0.275517
3664.000000	0.279822
3663.000000	0.284431
3662.000000	0.289424
3661.000000	0.294702
3660.000000	0.300084
3659.000000	0.305534
3658.000000	0.311220
3657.000000	0.317276
3656.000000	0.323550
3655.000000	0.329731
3654.000000	0.335684
3653.000000	0.341512
3652.000000	0.347383
3651.000000	0.353450
3650.000000	0.359873
3649.000000	0.366665
3648.000000	0.373468
3647.000000	0.379779
3646.000000	0.385384
3645.000000	0.390418
3644.000000	0.395167
3643.000000	0.399920
3642.000000	0.404892
3641.000000	0.410199
3640.000000	0.415854
3639.000000	0.421797
3638.000000	0.427942
3637.000000	0.434228
3636.000000	0.440650
3635.000000	0.447188
3634.000000	0.453723
3633.000000	0.460096
3632.000000	0.466352
3631.000000	0.472849
3630.000000	0.480025
3629.000000	0.487861
3628.000000	0.495723
3627.000000	0.502991
3626.000000	0.509527
3625.000000	0.515473
3624.000000	0.520988
3623.000000	0.526271
3622.000000	0.531585
3621.000000	0.537100
3620.000000	0.542790
3619.000000	0.548517
3618.000000	0.554127
3617.000000	0.559503
3616.000000	0.564627
3615.000000	0.569622
3614.000000	0.574660
3613.000000	0.579818
3612.000000	0.585080
3611.000000	0.590491
3610.000000	0.596153
3609.000000	0.602035
3608.000000	0.607939
3607.000000	0.613701
3606.000000	0.619297
3605.000000	0.624737
3604.000000	0.630024
3603.000000	0.635264
3602.000000	0.640667
3601.000000	0.646322
3600.000000	0.652115
3599.000000	0.657910
3598.000000	0.663673
3597.000000	0.669417
3596.000000	0.675149
3595.000000	0.680916
3594.000000	0.686761
3593.000000	0.692609
3592.000000	0.698317
3591.000000	0.703910
3590.000000	0.709624
3589.000000	0.715675
3588.000000	0.722071
3587.000000	0.728621
3586.000000	0.735036
3585.000000	0.741030
3584.000000	0.746471
3583.000000	0.751500
3582.000000	0.756421
3581.000000	0.761432
3580.000000	0.766558
3579.000000	0.771799
3578.000000	0.777199
3577.000000	0.782727
3576.000000	0.788282
3575.000000	0.793851
3574.000000	0.799506
3573.000000	0.805240
3572.000000	0.810946
3571.000000	0.816598
3570.000000	0.822304
3569.000000	0.828123
3568.000000	0.834001
3567.000000	0.839885
3566.000000	0.845734
3565.000000	0.851415
3564.000000	0.856783
3563.000000	0.861870
3562.000000	0.866827
3561.000000	0.871718
3560.000000	0.876518
3559.000000	0.881299
3558.000000	0.886199
3557.000000	0.891225
3556.000000	0.896268
3555.000000	0.901333
3554.000000	0.906542
3553.000000	0.911892
3552.000000	0.917201
3551.000000	0.922367
3550.000000	0.927487
3549.000000	0.932686
3548.000000	0.938003
3547.000000	0.943438
3546.000000	0.948919
3545.000000	0.954208
3544.000000	0.959052
3543.000000	0.963463
3542.000000	0.967669
3541.000000	0.971841
3540.000000	0.976067
3539.000000	0.980501
3538.000000	0.985261
3537.000000	0.990180
3536.000000	0.994922
3535.000000	0.999376
3534.000000	1.003709
3533.000000	1.008060
3532.000000	1.012416
3531.000000	1.016809
3530.000000	1.021349
3529.000000	1.026040
3528.000000	1.030779
3527.000000	1.035569
3526.000000	1.040477
3525.000000	1.045380
3524.000000	1.049995
3523.000000	1.054217
3522.000000	1.058208
3521.000000	1.062135
3520.000000	1.066061
3519.000000	1.070070
3518.000000	1.074268
3517.000000	1.078619
3516.000000	1.082999
3515.000000	1.087366
3514.000000	1.091717
3513.000000	1.095923
3512.000000	1.099866
3511.000000	1.103679
3510.000000	1.107599
3509.000000	1.111631
3508.000000	1.115620
3507.000000	1.119592
3506.000000	1.123739
3505.000000	1.128072
3504.000000	1.132374
3503.000000	1.136480
3502.000000	1.140367
3501.000000	1.144012
3500.000000	1.147424
3499.000000	1.150779
3498.000000	1.154247
3497.000000	1.157733
3496.000000	1.161038
3495.000000	1.164197
3494.000000	1.167375
3493.000000	1.170559
3492.000000	1.173626
3491.000000	1.176647
3490.000000	1.179796
3489.000000	1.183018
3488.000000	1.186102
3487.000000	1.189018
3486.000000	1.191893
3485.000000	1.194722
3484.000000	1.197429
3483.000000	1.200137
3482.000000	1.203039
3481.000000	1.206048
3480.000000	1.208880
3479.000000	1.211441
3478.000000	1.213845
3477.000000	1.216144
3476.000000	1.218332
3475.000000	1.220567
3474.000000	1.223062
3473.000000	1.225816
3472.000000	1.228699
3471.000000	1.231705
3470.000000	1.234836
3469.000000	1.237839
3468.000000	1.240404
3467.000000	1.242553
3466.000000	1.244542
3465.000000	1.246506
3464.000000	1.248477
3463.000000	1.250627
3462.000000	1.253102
3461.000000	1.255720
3460.000000	1.258166
3459.000000	1.260414
3458.000000	1.262673
3457.000000	1.265006
3456.000000	1.267340
3455.000000	1.269722
3454.000000	1.272246
3453.000000	1.274801
3452.000000	1.277217
3451.000000	1.279570
3450.000000	1.282054
3449.000000	1.284639
3448.000000	1.287145
3447.000000	1.289552
3446.000000	1.291925
3445.000000	1.294175
3444.000000	1.296197
3443.000000	1.298148
3442.000000	1.300261
3441.000000	1.302543
3440.000000	1.304898
3439.000000	1.307397
3438.000000	1.310082
3437.000000	1.312663
3436.000000	1.314767
3435.000000	1.316381
3434.000000	1.317755
3433.000000	1.319032
3432.000000	1.320266
3431.000000	1.321594
3430.000000	1.323053
3429.000000	1.324369
3428.000000	1.325293
3427.000000	1.325988
3426.000000	1.326774
3425.000000	1.327691
3424.000000	1.328611
3423.000000	1.329585
3422.000000	1.330696
3421.000000	1.331744
3420.000000	1.332466
3419.000000	1.332938
3418.000000	1.333409
3417.000000	1.333920
3416.000000	1.334385
3415.000000	1.334886
3414.000000	1.335513
3413.000000	1.336090
3412.000000	1.336393
3411.000000	1.336497
3410.000000	1.336575
3409.000000	1.336532
3408.000000	1.336208
3407.000000	1.335772
3406.000000	1.335586
3405.000000	1.335798
3404.000000	1.336350
3403.000000	1.337176
3402.000000	1.338078
3401.000000	1.338581
3400.000000	1.338324
3399.000000	1.337506
3398.000000	1.336636
3397.000000	1.336006
3396.000000	1.335672
3395.000000	1.335718
3394.000000	1.336149
3393.000000	1.336648
3392.000000	1.336801
3391.000000	1.336496
3390.000000	1.335885
3389.000000	1.335110
3388.000000	1.334332
3387.000000	1.333808
3386.000000	1.333651
3385.000000	1.333650
3384.000000	1.333589
3383.000000	1.333561
3382.000000	1.333718
3381.000000	1.333915
3380.000000	1.333913
3379.000000	1.333743
3378.000000	1.333569
3377.000000	1.333366
3376.000000	1.333046
3375.000000	1.332738
3374.000000	1.332640
3373.000000	1.332736
3372.000000	1.332915
3371.000000	1.333182
3370.000000	1.333498
3369.000000	1.333597
3368.000000	1.333251
3367.000000	1.332578
3366.000000	1.331841
3365.000000	1.331102
3364.000000	1.330347
3363.000000	1.329711
3362.000000	1.329303
3361.000000	1.328959
3360.000000	1.328469
3359.000000	1.327867
3358.000000	1.327276
3357.000000	1.326645
3356.000000	1.325911
3355.000000	1.325229
3354.000000	1.324767
3353.000000	1.324405
3352.000000	1.323908
3351.000000	1.323230
3350.000000	1.322418
3349.000000	1.321397
3348.000000	1.320125
3347.000000	1.318797
3346.000000	1.317629
3345.000000	1.316565
3344.000000	1.315424
3343.000000	1.314180
3342.000000	1.312901
3341.000000	1.311549
3340.000000	1.310081
3339.000000	1.308571
3338.000000	1.307038
3337.000000	1.305322
3336.000000	1.303327
3335.000000	1.301208
3334.000000	1.299137
3333.000000	1.297071
3332.000000	1.294917
3331.000000	1.292745
3330.000000	1.290632
3329.000000	1.288486
3328.000000	1.286218
3327.000000	1.283915
3326.000000	1.281640
3325.000000	1.279272
3324.000000	1.276730
3323.000000	1.274157
3322.000000	1.271697
3321.000000	1.269271
3320.000000	1.266778
3319.000000	1.264308
3318.000000	1.261975
3317.000000	1.259703
3316.000000	1.257381
3315.000000	1.255064
3314.000000	1.252826
3313.000000	1.250599
3312.000000	1.248333
3311.000000	1.246140
3310.000000	1.244106
3309.000000	1.242121
3308.000000	1.240060
3307.000000	1.237974
3306.000000	1.235916
3305.000000	1.233771
3304.000000	1.231450
3303.000000	1.229094
3302.000000	1.226887
3301.000000	1.224804
3300.000000	1.222733
3299.000000	1.220683
3298.000000	1.218706
3297.000000	1.216746
3296.000000	1.214743
3295.000000	1.212761
3294.000000	1.210842
3293.000000	1.208885
3292.000000	1.206802
3291.000000	1.204678
3290.000000	1.202609
3289.000000	1.200538
3288.000000	1.198387
3287.000000	1.196217
3286.000000	1.194105
3285.000000	1.191996
3284.000000	1.189827
3283.000000	1.187653
3282.000000	1.185534
3281.000000	1.183403
3280.000000	1.181196
3279.000000	1.178973
3278.000000	1.176793
3277.000000	1.174592
3276.000000	1.172303
3275.000000	1.169979
3274.000000	1.167667
3273.000000	1.165301
3272.000000	1.162819
3271.000000	1.160270
3270.000000	1.157693
3269.000000	1.155025
3268.000000	1.152236
3267.000000	1.149429
3266.000000	1.146684
3265.000000	1.143937
3264.000000	1.141127
3263.000000	1.138309
3262.000000	1.135532
3261.000000	1.132725
3260.000000	1.129819
3259.000000	1.126864
3258.000000	1.123925
3257.000000	1.120965
3256.000000	1.117943
3255.000000	1.114899
3254.000000	1.111854
3253.000000	1.108742
3252.000000	1.105532
3251.000000	1.102308
3250.000000	1.099132
3249.000000	1.095956
3248.000000	1.092737
3247.000000	1.089522
3246.000000	1.086337
3245.000000	1.083110
3244.000000	1.079790
3243.000000	1.076436
3242.000000	1.073103
3241.000000	1.069761
3240.000000	1.066389
3239.000000	1.063040
3238.000000	1.059734
3237.000000	1.056403
3236.000000	1.053014
3235.000000	1.049628
3234.000000	1.046277
3233.000000	1.042891
3232.000000	1.039428
3231.000000	1.035954
3230.000000	1.032521
3229.000000	1.029072
3228.000000	1.025549
3227.000000	1.021991
3226.000000	1.018454
3225.000000	1.014920
3224.000000	1.011365
3223.000000	1.007814
3222.000000	1.004270
3221.000000	1.000675
3220.000000	0.997019
3219.000000	0.993374
3218.000000	0.989777
3217.000000	0.986153
3216.000000	0.982440
3215.000000	0.978677
3214.000000	0.974916
3213.000000	0.971139
3212.000000	0.967323
3211.000000	0.963501
3210.000000	0.959692
3209.000000	0.955853
3208.000000	0.951963
3207.000000	0.948072
3206.000000	0.944213
3205.000000	0.940343
3204.000000	0.936429
3203.000000	0.932511
3202.000000	0.928622
3201.000000	0.924730
3200.000000	0.920795
3199.000000	0.916838
3198.000000	0.912881
3197.000000	0.908899
3196.000000	0.904879
3195.000000	0.900853
3194.000000	0.896850
3193.000000	0.892846
3192.000000	0.888833
3191.000000	0.884842
3190.000000	0.880881
3189.000000	0.876904
3188.000000	0.872880
3187.000000	0.868845
3186.000000	0.864827
3185.000000	0.860808
3184.000000	0.856771
3183.000000	0.852753
3182.000000	0.848773
3181.000000	0.844799
3180.000000	0.840798
3179.000000	0.836786
3178.000000	0.832786
3177.000000	0.828775
3176.000000	0.824737
3175.000000	0.820695
3174.000000	0.816679
3173.000000	0.812680
3172.000000	0.808684
3171.000000	0.804700
3170.000000	0.800727
3169.000000	0.796740
3168.000000	0.792734
3167.000000	0.788739
3166.000000	0.784776
3165.000000	0.780828
3164.000000	0.776873
3163.000000	0.772926
3162.000000	0.768998
3161.000000	0.765077
3160.000000	0.761153
3159.000000	0.757241
3158.000000	0.753345
3157.000000	0.749453
3156.000000	0.745567
3155.000000	0.741713
3154.000000	0.737890
3153.000000	0.734056
3152.000000	0.730180
3151.000000	0.726272
3150.000000	0.722360
3149.000000	0.718453
3148.000000	0.714561
3147.000000	0.710707
3146.000000	0.706893
3145.000000	0.703095
3144.000000	0.699298
3143.000000	0.695520
3142.000000	0.691779
3141.000000	0.688059
3140.000000	0.684343
3139.000000	0.680626
3138.000000	0.676905
3137.000000	0.673176
3136.000000	0.669451
3135.000000	0.665757
3134.000000	0.662102
3133.000000	0.658467
3132.000000	0.654839
3131.000000	0.651231
3130.000000	0.647652
3129.000000	0.644087
3128.000000	0.640525
3127.000000	0.636978
3126.000000	0.633461
3125.000000	0.629973
3124.000000	0.626514
3123.000000	0.623097
3122.000000	0.619727
3121.000000	0.616387
3120.000000	0.613056
3119.000000	0.609733
3118.000000	0.606416
3117.000000	0.603096
3116.000000	0.599767
3115.000000	0.596444
3114.000000	0.593148
3113.000000	0.589889
3112.000000	0.586679
3111.000000	0.583525
3110.000000	0.580418
3109.000000	0.577333
3108.000000	0.574256
3107.000000	0.571199
3106.000000	0.568182
3105.000000	0.565206
3104.000000	0.562266
3103.000000	0.559361
3102.000000	0.556488
3101.000000	0.553637
3100.000000	0.550799
3099.000000	0.547980
3098.000000	0.545186
3097.000000	0.542415
3096.000000	0.539663
3095.000000	0.536938
3094.000000	0.534249
3093.000000	0.531595
3092.000000	0.528976
3091.000000	0.526392
3090.000000	0.523843
3089.000000	0.521315
3088.000000	0.518805
3087.000000	0.516321
3086.000000	0.513870
3085.000000	0.511450
3084.000000	0.509057
3083.000000	0.506687
3082.000000	0.504340
3081.000000	0.502006
3080.000000	0.499675
3079.000000	0.497342
3078.000000	0.495004
3077.000000	0.492658
3076.000000	0.490308
3075.000000	0.487971
3074.000000	0.485659
3073.000000	0.483367
3072.000000	0.481085
3071.000000	0.478807
3070.000000	0.476529
3069.000000	0.474237
3068.000000	0.471910
3067.000000	0.469528
3066.000000	0.467086
3065.000000	0.464589
3064.000000	0.462054
3063.000000	0.459495
3062.000000	0.456919
3061.000000	0.454322
3060.000000	0.451701
3059.000000	0.449060
3058.000000	0.446402
3057.000000	0.443727
3056.000000	0.441032
3055.000000	0.438324
3054.000000	0.435620
3053.000000	0.432930
3052.000000	0.430256
3051.000000	0.427585
3050.000000	0.424909
3049.000000	0.422227
3048.000000	0.419549
3047.000000	0.416888
3046.000000	0.414255
3045.000000	0.411650
3044.000000	0.409066
3043.000000	0.406502
3042.000000	0.403960
3041.000000	0.401440
3040.000000	0.398943
3039.000000	0.396470
3038.000000	0.394026
3037.000000	0.391621
3036.000000	0.389260
3035.000000	0.386943
3034.000000	0.384659
3033.000000	0.382395
3032.000000	0.380138
3031.000000	0.377892
3030.000000	0.375669
3029.000000	0.373484
3028.000000	0.371340
3027.000000	0.369237
3026.000000	0.367175
3025.000000	0.365160
3024.000000	0.363192
3023.000000	0.361270
3022.000000	0.359394
3021.000000	0.357573
3020.000000	0.355814
3019.000000	0.354122
3018.000000	0.352500
3017.000000	0.350946
3016.000000	0.349455
3015.000000	0.348019
3014.000000	0.346635
3013.000000	0.345297
3012.000000	0.344003
3011.000000	0.342753
3010.000000	0.341560
3009.000000	0.340437
3008.000000	0.339386
3007.000000	0.338401
3006.000000	0.337481
3005.000000	0.336629
3004.000000	0.335850
3003.000000	0.335151
3002.000000	0.334543
3001.000000	0.334042
3000.000000	0.333655
2999.000000	0.333386
2998.000000	0.333243
2997.000000	0.333236
2996.000000	0.333371
2995.000000	0.333655
2994.000000	0.334100
2993.000000	0.334719
2992.000000	0.335516
2991.000000	0.336486
2990.000000	0.337626
2989.000000	0.338939
2988.000000	0.340421
2987.000000	0.342060
2986.000000	0.343846
2985.000000	0.345769
2984.000000	0.347821
2983.000000	0.349993
2982.000000	0.352284
2981.000000	0.354696
2980.000000	0.357225
2979.000000	0.359864
2978.000000	0.362603
2977.000000	0.365437
2976.000000	0.368357
2975.000000	0.371360
2974.000000	0.374442
2973.000000	0.377592
2972.000000	0.380789
2971.000000	0.384013
2970.000000	0.387249
2969.000000	0.390490
2968.000000	0.393732
2967.000000	0.396970
2966.000000	0.400205
2965.000000	0.403443
2964.000000	0.406692
2963.000000	0.409959
2962.000000	0.413249
2961.000000	0.416560
2960.000000	0.419890
2959.000000	0.423239
2958.000000	0.426616
2957.000000	0.430029
2956.000000	0.433488
2955.000000	0.437006
2954.000000	0.440606
2953.000000	0.444306
2952.000000	0.448125
2951.000000	0.452075
2950.000000	0.456163
2949.000000	0.460387
2948.000000	0.464732
2947.000000	0.469179
2946.000000	0.473692
2945.000000	0.478222
2944.000000	0.482714
2943.000000	0.487122
2942.000000	0.491406
2941.000000	0.495529
2940.000000	0.499460
2939.000000	0.503180
2938.000000	0.506681
2937.000000	0.509953
2936.000000	0.512984
2935.000000	0.515767
2934.000000	0.518291
2933.000000	0.520548
2932.000000	0.522539
2931.000000	0.524271
2930.000000	0.525749
2929.000000	0.526968
2928.000000	0.527926
2927.000000	0.528631
2926.000000	0.529081
2925.000000	0.529273
2924.000000	0.529197
2923.000000	0.528831
2922.000000	0.528122
2921.000000	0.526962
2920.000000	0.525180
2919.000000	0.522553
2918.000000	0.518850
2917.000000	0.513930
2916.000000	0.507857
2915.000000	0.500925
2914.000000	0.493585
2913.000000	0.486304
2912.000000	0.479449
2911.000000	0.473225
2910.000000	0.467692
2909.000000	0.462809
2908.000000	0.458493
2907.000000	0.454651
2906.000000	0.451194
2905.000000	0.448044
2904.000000	0.445137
2903.000000	0.442418
2902.000000	0.439841
2901.000000	0.437370
2900.000000	0.434970
2899.000000	0.432618
2898.000000	0.430293
2897.000000	0.427986
2896.000000	0.425689
2895.000000	0.423398
2894.000000	0.421105
2893.000000	0.418801
2892.000000	0.416477
2891.000000	0.414122
2890.000000	0.411728
2889.000000	0.409291
2888.000000	0.406803
2887.000000	0.404264
2886.000000	0.401679
2885.000000	0.399058
2884.000000	0.396404
2883.000000	0.393714
2882.000000	0.390984
2881.000000	0.388217
2880.000000	0.385418
2879.000000	0.382587
2878.000000	0.379726
2877.000000	0.376832
2876.000000	0.373901
2875.000000	0.370926
2874.000000	0.367904
2873.000000	0.364829
2872.000000	0.361693
2871.000000	0.358490
2870.000000	0.355244
2869.000000	0.352004
2868.000000	0.348831
2867.000000	0.345785
2866.000000	0.342928
2865.000000	0.340323
2864.000000	0.338019
2863.000000	0.336054
2862.000000	0.334455
2861.000000	0.333243
2860.000000	0.332416
2859.000000	0.331951
2858.000000	0.331813
2857.000000	0.331961
2856.000000	0.332347
2855.000000	0.332897
2854.000000	0.333476
2853.000000	0.333829
2852.000000	0.333519
2851.000000	0.331991
2850.000000	0.328769
2849.000000	0.323695
2848.000000	0.317051
2847.000000	0.309451
2846.000000	0.301591
2845.000000	0.294022
2844.000000	0.287037
2843.000000	0.280709
2842.000000	0.274989
2841.000000	0.269788
2840.000000	0.265009
2839.000000	0.260566
2838.000000	0.256398
2837.000000	0.252455
2836.000000	0.248696
2835.000000	0.245090
2834.000000	0.241629
2833.000000	0.238315
2832.000000	0.235140
2831.000000	0.232087
2830.000000	0.229147
2829.000000	0.226319
2828.000000	0.223593
2827.000000	0.220958
2826.000000	0.218412
2825.000000	0.215962
2824.000000	0.213605
2823.000000	0.211328
2822.000000	0.209126
2821.000000	0.207002
2820.000000	0.204949
2819.000000	0.202951
2818.000000	0.201005
2817.000000	0.199114
2816.000000	0.197280
2815.000000	0.195493
2814.000000	0.193753
2813.000000	0.192064
2812.000000	0.190422
2811.000000	0.188817
2810.000000	0.187255
2809.000000	0.185742
2808.000000	0.184272
2807.000000	0.182833
2806.000000	0.181420
2805.000000	0.180041
2804.000000	0.178695
2803.000000	0.177372
2802.000000	0.176072
2801.000000	0.174804
2800.000000	0.173569
2799.000000	0.172359
2798.000000	0.171174
2797.000000	0.170021
2796.000000	0.168894
2795.000000	0.167785
2794.000000	0.166697
2793.000000	0.165643
2792.000000	0.164620
2791.000000	0.163618
2790.000000	0.162640
2789.000000	0.161699
2788.000000	0.160791
2787.000000	0.159902
2786.000000	0.159030
2785.000000	0.158185
2784.000000	0.157367
2783.000000	0.156572
2782.000000	0.155801
2781.000000	0.155062
2780.000000	0.154351
2779.000000	0.153652
2778.000000	0.152968
2777.000000	0.152315
2776.000000	0.151697
2775.000000	0.151113
2774.000000	0.150562
2773.000000	0.150046
2772.000000	0.149545
2771.000000	0.149019
2770.000000	0.148446
2769.000000	0.147822
2768.000000	0.147146
2767.000000	0.146421
2766.000000	0.145668
2765.000000	0.144918
2764.000000	0.144190
2763.000000	0.143480
2762.000000	0.142793
2761.000000	0.142136
2760.000000	0.141506
2759.000000	0.140889
2758.000000	0.140289
2757.000000	0.139718
2756.000000	0.139176
2755.000000	0.138646
2754.000000	0.138123
2753.000000	0.137608
2752.000000	0.137097
2751.000000	0.136582
2750.000000	0.136068
2749.000000	0.135575
2748.000000	0.135103
2747.000000	0.134643
2746.000000	0.134189
2745.000000	0.133743
2744.000000	0.133295
2743.000000	0.132831
2742.000000	0.132353
2741.000000	0.131878
2740.000000	0.131411
2739.000000	0.130944
2738.000000	0.130478
2737.000000	0.130020
2736.000000	0.129563
2735.000000	0.129089
2734.000000	0.128599
2733.000000	0.128108
2732.000000	0.127618
2731.000000	0.127121
2730.000000	0.126616
2729.000000	0.126111
2728.000000	0.125606
2727.000000	0.125086
2726.000000	0.124554
2725.000000	0.124016
2724.000000	0.123472
2723.000000	0.122913
2722.000000	0.122346
2721.000000	0.121787
2720.000000	0.121230
2719.000000	0.120657
2718.000000	0.120067
2717.000000	0.119469
2716.000000	0.118864
2715.000000	0.118242
2714.000000	0.117607
2713.000000	0.116976
2712.000000	0.116349
2711.000000	0.115715
2710.000000	0.115071
2709.000000	0.114430
2708.000000	0.113788
2707.000000	0.113138
2706.000000	0.112484
2705.000000	0.111842
2704.000000	0.111213
2703.000000	0.110584
2702.000000	0.109956
2701.000000	0.109341
2700.000000	0.108736
2699.000000	0.108128
2698.000000	0.107518
2697.000000	0.106920
2696.000000	0.106335
2695.000000	0.105753
2694.000000	0.105173
2693.000000	0.104603
2692.000000	0.104039
2691.000000	0.103468
2690.000000	0.102896
2689.000000	0.102336
2688.000000	0.101788
2687.000000	0.101239
2686.000000	0.100690
2685.000000	0.100152
2684.000000	0.099622
2683.000000	0.099084
2682.000000	0.098538
2681.000000	0.098000
2680.000000	0.097473
2679.000000	0.096946
2678.000000	0.096416
2677.000000	0.095891
2676.000000	0.095365
2675.000000	0.094828
2674.000000	0.094286
2673.000000	0.093757
2672.000000	0.093240
2671.000000	0.092719
2670.000000	0.092195
2669.000000	0.091678
2668.000000	0.091162
2667.000000	0.090633
2666.000000	0.090096
2665.000000	0.089568
2664.000000	0.089054
2663.000000	0.088541
2662.000000	0.088028
2661.000000	0.087523
2660.000000	0.087023
2659.000000	0.086513
2658.000000	0.085994
2657.000000	0.085481
2656.000000	0.084974
2655.000000	0.084462
2654.000000	0.083950
2653.000000	0.083453
2652.000000	0.082963
2651.000000	0.082459
2650.000000	0.081936
2649.000000	0.081409
2648.000000	0.080883
2647.000000	0.080349
2646.000000	0.079815
2645.000000	0.079297
2644.000000	0.078791
2643.000000	0.078274
2642.000000	0.077742
2641.000000	0.077204
2640.000000	0.076659
2639.000000	0.076099
2638.000000	0.075534
2637.000000	0.074985
2636.000000	0.074452
2635.000000	0.073918
2634.000000	0.073375
2633.000000	0.072833
2632.000000	0.072287
2631.000000	0.071726
2630.000000	0.071161
2629.000000	0.070616
2628.000000	0.070097
2627.000000	0.069588
2626.000000	0.069084
2625.000000	0.068591
2624.000000	0.068100
2623.000000	0.067598
2622.000000	0.067090
2621.000000	0.066598
2620.000000	0.066127
2619.000000	0.065668
2618.000000	0.065222
2617.000000	0.064797
2616.000000	0.064379
2615.000000	0.063945
2614.000000	0.063496
2613.000000	0.063054
2612.000000	0.062629
2611.000000	0.062213
2610.000000	0.061808
2609.000000	0.061425
2608.000000	0.061055
2607.000000	0.060676
2606.000000	0.060288
2605.000000	0.059905
2604.000000	0.059530
2603.000000	0.059155
2602.000000	0.058787
2601.000000	0.058440
2600.000000	0.058108
2599.000000	0.057769
2598.000000	0.057423
2597.000000	0.057084
2596.000000	0.056753
2595.000000	0.056418
2594.000000	0.056081
2593.000000	0.055759
2592.000000	0.055449
2591.000000	0.055134
2590.000000	0.054813
2589.000000	0.054500
2588.000000	0.054189
2587.000000	0.053866
2586.000000	0.053537
2585.000000	0.053222
2584.000000	0.052919
2583.000000	0.052609
2582.000000	0.052292
2581.000000	0.051983
2580.000000	0.051682
2579.000000	0.051373
2578.000000	0.051057
2577.000000	0.050748
2576.000000	0.050446
2575.000000	0.050137
2574.000000	0.049821
2573.000000	0.049512
2572.000000	0.049205
2571.000000	0.048886
2570.000000	0.048563
2569.000000	0.048258
2568.000000	0.047966
2567.000000	0.047666
2566.000000	0.047353
2565.000000	0.047041
2564.000000	0.046733
2563.000000	0.046416
2562.000000	0.046095
2561.000000	0.045788
2560.000000	0.045492
2559.000000	0.045193
2558.000000	0.044890
2557.000000	0.044594
2556.000000	0.044296
2555.000000	0.043981
2554.000000	0.043659
2553.000000	0.043352
2552.000000	0.043063
2551.000000	0.042776
2550.000000	0.042488
2549.000000	0.042211
2548.000000	0.041934
2547.000000	0.041637
2546.000000	0.041323
2545.000000	0.041017
2544.000000	0.040725
2543.000000	0.040433
2542.000000	0.040141
2541.000000	0.039859
2540.000000	0.039580
2539.000000	0.039283
2538.000000	0.038973
2537.000000	0.038668
2536.000000	0.038372
2535.000000	0.038070
2534.000000	0.037768
2533.000000	0.037485
2532.000000	0.037216
2531.000000	0.036936
2530.000000	0.036641
2529.000000	0.036348
2528.000000	0.036059
2527.000000	0.035765
2526.000000	0.035474
2525.000000	0.035206
2524.000000	0.034956
2523.000000	0.034700
2522.000000	0.034439
2521.000000	0.034185
2520.000000	0.033938
2519.000000	0.033684
2518.000000	0.033430
2517.000000	0.033198
2516.000000	0.032983
2515.000000	0.032762
2514.000000	0.032533
2513.000000	0.032312
2512.000000	0.032094
2511.000000	0.031865
2510.000000	0.031630
2509.000000	0.031410
2508.000000	0.031208
2507.000000	0.031006
2506.000000	0.030803
2505.000000	0.030606
2504.000000	0.030404
2503.000000	0.030176
2502.000000	0.029927
2501.000000	0.029682
2500.000000	0.029441
2499.000000	0.029183
2498.000000	0.028910
2497.000000	0.028638
2496.000000	0.028363
2495.000000	0.028068
2494.000000	0.027760
2493.000000	0.027462
2492.000000	0.027180
2491.000000	0.026899
2490.000000	0.026622
2489.000000	0.026362
2488.000000	0.026113
2487.000000	0.025852
2486.000000	0.025578
2485.000000	0.025311
2484.000000	0.025049
2483.000000	0.024777
2482.000000	0.024504
2481.000000	0.024250
2480.000000	0.024010
2479.000000	0.023758
2478.000000	0.023492
2477.000000	0.023230
2476.000000	0.022973
2475.000000	0.022708
2474.000000	0.022440
2473.000000	0.022189
2472.000000	0.021951
2471.000000	0.021706
2470.000000	0.021454
2469.000000	0.021210
2468.000000	0.020970
2467.000000	0.020716
2466.000000	0.020455
2465.000000	0.020211
2464.000000	0.019984
2463.000000	0.019751
2462.000000	0.019512
2461.000000	0.019282
2460.000000	0.019056
2459.000000	0.018814
2458.000000	0.018563
2457.000000	0.018324
2456.000000	0.018097
2455.000000	0.017864
2454.000000	0.017626
2453.000000	0.017400
2452.000000	0.017179
2451.000000	0.016941
2450.000000	0.016691
2449.000000	0.016453
2448.000000	0.016227
2447.000000	0.015994
2446.000000	0.015756
2445.000000	0.015531
2444.000000	0.015314
2443.000000	0.015083
2442.000000	0.014842
2441.000000	0.014611
2440.000000	0.014387
2439.000000	0.014152
2438.000000	0.013911
2437.000000	0.013681
2436.000000	0.013454
2435.000000	0.013208
2434.000000	0.012951
2433.000000	0.012708
2432.000000	0.012479
2431.000000	0.012243
2430.000000	0.012000
2429.000000	0.011771
2428.000000	0.011550
2427.000000	0.011315
2426.000000	0.011067
2425.000000	0.010828
2424.000000	0.010601
2423.000000	0.010369
2422.000000	0.010138
2421.000000	0.009925
2420.000000	0.009722
2419.000000	0.009508
2418.000000	0.009286
2417.000000	0.009080
2416.000000	0.008888
2415.000000	0.008690
2414.000000	0.008490
2413.000000	0.008309
2412.000000	0.008142
2411.000000	0.007966
2410.000000	0.007782
2409.000000	0.007614
2408.000000	0.007461
2407.000000	0.007300
2406.000000	0.007137
2405.000000	0.006989
2404.000000	0.006852
2403.000000	0.006700
2402.000000	0.006535
2401.000000	0.006379
2400.000000	0.006227
2399.000000	0.006060
2398.000000	0.005882
2397.000000	0.005718
2396.000000	0.005563
2395.000000	0.005394
2394.000000	0.005214
2393.000000	0.005046
2392.000000	0.004890
2391.000000	0.004728
2390.000000	0.004567
2389.000000	0.004426
2388.000000	0.004293
2387.000000	0.004141
2386.000000	0.003972
2385.000000	0.003808
2384.000000	0.003649
2383.000000	0.003475
2382.000000	0.003300
2381.000000	0.003150
2380.000000	0.003026
2379.000000	0.002898
2378.000000	0.002765
2377.000000	0.002644
2376.000000	0.002533
2375.000000	0.002412
2374.000000	0.002292
2373.000000	0.002200
2372.000000	0.002126
2371.000000	0.002037
2370.000000	0.001934
2369.000000	0.001844
2368.000000	0.001759
2367.000000	0.001644
2366.000000	0.001515
2365.000000	0.001419
2364.000000	0.001351
2363.000000	0.001275
2362.000000	0.001201
2361.000000	0.001151
2360.000000	0.001107
2359.000000	0.001034
2358.000000	0.000945
2357.000000	0.000883
2356.000000	0.000829
2355.000000	0.000745
2354.000000	0.000620
2353.000000	0.000472
2352.000000	0.000314
2351.000000	0.000165
2350.000000	0.000109
2349.000000	0.000194
2348.000000	0.000356
2347.000000	0.000460
2346.000000	0.000417
2345.000000	0.000305
2344.000000	0.000219
2343.000000	0.000189
2342.000000	0.000186
2341.000000	0.000184
2340.000000	0.000187
2339.000000	0.000170
2338.000000	0.000152
2337.000000	0.000152
2336.000000	0.000173
2335.000000	0.000170
2334.000000	0.000148
2333.000000	0.000119
2332.000000	0.000099
2331.000000	0.000053
2330.000000	0.000025
2329.000000	0.000045
2328.000000	0.000121
2327.000000	0.000208
2326.000000	0.000275
2325.000000	0.000335
2324.000000	0.000367
2323.000000	0.000365
2322.000000	0.000358
2321.000000	0.000390
2320.000000	0.000468
2319.000000	0.000541
2318.000000	0.000613
2317.000000	0.000686
2316.000000	0.000759
2315.000000	0.000784
2314.000000	0.000784
2313.000000	0.000795
2312.000000	0.000842
2311.000000	0.000894
2310.000000	0.000948
2309.000000	0.001013
2308.000000	0.001087
2307.000000	0.001140
2306.000000	0.001185
2305.000000	0.001248
2304.000000	0.001332
2303.000000	0.001407
2302.000000	0.001472
2301.000000	0.001543
2300.000000	0.001615
2299.000000	0.001658
2298.000000	0.001682
2297.000000	0.001717
2296.000000	0.001770
2295.000000	0.001817
2294.000000	0.001860
2293.000000	0.001919
2292.000000	0.001984
2291.000000	0.002023
2290.000000	0.002036
2289.000000	0.002055
2288.000000	0.002084
2287.000000	0.002108
2286.000000	0.002130
2285.000000	0.002174
2284.000000	0.002230
2283.000000	0.002267
2282.000000	0.002283
2281.000000	0.002305
2280.000000	0.002332
2279.000000	0.002345
2278.000000	0.002355
2277.000000	0.002393
2276.000000	0.002457
2275.000000	0.002515
2274.000000	0.002559
2273.000000	0.002609
2272.000000	0.002663
2271.000000	0.002701
2270.000000	0.002733
2269.000000	0.002793
2268.000000	0.002877
2267.000000	0.002953
2266.000000	0.003020
2265.000000	0.003100
2264.000000	0.003185
2263.000000	0.003249
2262.000000	0.003298
2261.000000	0.003370
2260.000000	0.003465
2259.000000	0.003557
2258.000000	0.003642
2257.000000	0.003738
2256.000000	0.003839
2255.000000	0.003917
2254.000000	0.003979
2253.000000	0.004060
2252.000000	0.004159
2251.000000	0.004251
2250.000000	0.004337
2249.000000	0.004442
2248.000000	0.004559
2247.000000	0.004654
2246.000000	0.004731
2245.000000	0.004823
2244.000000	0.004932
2243.000000	0.005034
2242.000000	0.005129
2241.000000	0.005242
2240.000000	0.005367
2239.000000	0.005473
2238.000000	0.005561
2237.000000	0.005660
2236.000000	0.005771
2235.000000	0.005869
2234.000000	0.005962
2233.000000	0.006076
2232.000000	0.006202
2231.000000	0.006306
2230.000000	0.006387
2229.000000	0.006474
2228.000000	0.006566
2227.000000	0.006635
2226.000000	0.006687
2225.000000	0.006755
2224.000000	0.006839
2223.000000	0.006912
2222.000000	0.006976
2221.000000	0.007058
2220.000000	0.007156
2219.000000	0.007241
2218.000000	0.007317
2217.000000	0.007413
2216.000000	0.007526
2215.000000	0.007625
2214.000000	0.007714
2213.000000	0.007822
2212.000000	0.007949
2211.000000	0.008063
2210.000000	0.008168
2209.000000	0.008292
2208.000000	0.008433
2207.000000	0.008557
2206.000000	0.008667
2205.000000	0.008790
2204.000000	0.008927
2203.000000	0.009053
2202.000000	0.009172
2201.000000	0.009315
2200.000000	0.009476
2199.000000	0.009619
2198.000000	0.009744
2197.000000	0.009883
2196.000000	0.010037
2195.000000	0.010179
2194.000000	0.010316
2193.000000	0.010481
2192.000000	0.010668
2191.000000	0.010842
2190.000000	0.011000
2189.000000	0.011167
2188.000000	0.011343
2187.000000	0.011501
2186.000000	0.011653
2185.000000	0.011834
2184.000000	0.012043
2183.000000	0.012243
2182.000000	0.012431
2181.000000	0.012631
2180.000000	0.012834
2179.000000	0.013010
2178.000000	0.013169
2177.000000	0.013353
2176.000000	0.013567
2175.000000	0.013776
2174.000000	0.013973
2173.000000	0.014177
2172.000000	0.014380
2171.000000	0.014554
2170.000000	0.014705
2169.000000	0.014873
2168.000000	0.015058
2167.000000	0.015232
2166.000000	0.015397
2165.000000	0.015579
2164.000000	0.015764
2163.000000	0.015911
2162.000000	0.016021
2161.000000	0.016134
2160.000000	0.016260
2159.000000	0.016373
2158.000000	0.016477
2157.000000	0.016599
2156.000000	0.016732
2155.000000	0.016834
2154.000000	0.016903
2153.000000	0.016973
2152.000000	0.017047
2151.000000	0.017102
2150.000000	0.017151
2149.000000	0.017227
2148.000000	0.017323
2147.000000	0.017396
2146.000000	0.017442
2145.000000	0.017494
2144.000000	0.017550
2143.000000	0.017582
2142.000000	0.017598
2141.000000	0.017640
2140.000000	0.017708
2139.000000	0.017764
2138.000000	0.017801
2137.000000	0.017846
2136.000000	0.017894
2135.000000	0.017911
2134.000000	0.017906
2133.000000	0.017920
2132.000000	0.017954
2131.000000	0.017974
2130.000000	0.017979
2129.000000	0.017998
2128.000000	0.018025
2127.000000	0.018027
2126.000000	0.018009
2125.000000	0.018012
2124.000000	0.018036
2123.000000	0.018045
2122.000000	0.018037
2121.000000	0.018043
2120.000000	0.018057
2119.000000	0.018042
2118.000000	0.018005
2117.000000	0.017988
2116.000000	0.017993
2115.000000	0.017986
2114.000000	0.017963
2113.000000	0.017956
2112.000000	0.017957
2111.000000	0.017927
2110.000000	0.017875
2109.000000	0.017845
2108.000000	0.017839
2107.000000	0.017823
2106.000000	0.017793
2105.000000	0.017780
2104.000000	0.017778
2103.000000	0.017748
2102.000000	0.017694
2101.000000	0.017656
2100.000000	0.017636
2099.000000	0.017602
2098.000000	0.017556
2097.000000	0.017533
2096.000000	0.017528
2095.000000	0.017498
2094.000000	0.017442
2093.000000	0.017398
2092.000000	0.017372
2091.000000	0.017336
2090.000000	0.017294
2089.000000	0.017279
2088.000000	0.017281
2087.000000	0.017260
2086.000000	0.017216
2085.000000	0.017187
2084.000000	0.017173
2083.000000	0.017141
2082.000000	0.017098
2081.000000	0.017084
2080.000000	0.017094
2079.000000	0.017088
2078.000000	0.017062
2077.000000	0.017051
2076.000000	0.017050
2075.000000	0.017025
2074.000000	0.016984
2073.000000	0.016969
2072.000000	0.016978
2071.000000	0.016969
2070.000000	0.016940
2069.000000	0.016926
2068.000000	0.016925
2067.000000	0.016900
2066.000000	0.016865
2065.000000	0.016859
2064.000000	0.016872
2063.000000	0.016854
2062.000000	0.016807
2061.000000	0.016775
2060.000000	0.016756
2059.000000	0.016706
2058.000000	0.016630
2057.000000	0.016576
2056.000000	0.016547
2055.000000	0.016502
2054.000000	0.016437
2053.000000	0.016385
2052.000000	0.016338
2051.000000	0.016252
2050.000000	0.016136
2049.000000	0.016037
2048.000000	0.015962
2047.000000	0.015873
2046.000000	0.015771
2045.000000	0.015688
2044.000000	0.015609
2043.000000	0.015489
2042.000000	0.015334
2041.000000	0.015189
2040.000000	0.015053
2039.000000	0.014888
2038.000000	0.014705
2037.000000	0.014550
2036.000000	0.014417
2035.000000	0.014250
2034.000000	0.014046
2033.000000	0.013848
2032.000000	0.013658
2031.000000	0.013441
2030.000000	0.013209
2029.000000	0.013009
2028.000000	0.012834
2027.000000	0.012626
2026.000000	0.012385
2025.000000	0.012156
2024.000000	0.011946
2023.000000	0.011719
2022.000000	0.011482
2021.000000	0.011284
2020.000000	0.011118
2019.000000	0.010934
2018.000000	0.010729
2017.000000	0.010541
2016.000000	0.010360
2015.000000	0.010140
2014.000000	0.009896
2013.000000	0.009692
2012.000000	0.009532
2011.000000	0.009365
2010.000000	0.009183
2009.000000	0.009028
2008.000000	0.008895
2007.000000	0.008737
2006.000000	0.008562
2005.000000	0.008423
2004.000000	0.008319
2003.000000	0.008203
2002.000000	0.008073
2001.000000	0.007970
2000.000000	0.007883
1999.000000	0.007760
1998.000000	0.007621
1997.000000	0.007534
1996.000000	0.007498
1995.000000	0.007451
1994.000000	0.007384
1993.000000	0.007344
1992.000000	0.007323
1991.000000	0.007254
1990.000000	0.007132
1989.000000	0.007020
1988.000000	0.006944
1987.000000	0.006863
1986.000000	0.006775
1985.000000	0.006724
1984.000000	0.006704
1983.000000	0.006661
1982.000000	0.006595
1981.000000	0.006558
1980.000000	0.006555
1979.000000	0.006534
1978.000000	0.006494
1977.000000	0.006484
1976.000000	0.006500
1975.000000	0.006483
1974.000000	0.006434
1973.000000	0.006418
1972.000000	0.006447
1971.000000	0.006470
1970.000000	0.006480
1969.000000	0.006521
1968.000000	0.006577
1967.000000	0.006582
1966.000000	0.006529
1965.000000	0.006481
1964.000000	0.006458
1963.000000	0.006425
1962.000000	0.006389
1961.000000	0.006399
1960.000000	0.006443
1959.000000	0.006459
1958.000000	0.006440
1957.000000	0.006440
1956.000000	0.006463
1955.000000	0.006457
1954.000000	0.006427
1953.000000	0.006430
1952.000000	0.006468
1951.000000	0.006484
1950.000000	0.006474
1949.000000	0.006499
1948.000000	0.006566
1947.000000	0.006620
1946.000000	0.006652
1945.000000	0.006705
1944.000000	0.006769
1943.000000	0.006778
1942.000000	0.006727
1941.000000	0.006663
1940.000000	0.006586
1939.000000	0.006469
1938.000000	0.006358
1937.000000	0.006330
1936.000000	0.006373
1935.000000	0.006403
1934.000000	0.006401
1933.000000	0.006412
1932.000000	0.006425
1931.000000	0.006386
1930.000000	0.006312
1929.000000	0.006286
1928.000000	0.006331
1927.000000	0.006400
1926.000000	0.006477
1925.000000	0.006591
1924.000000	0.006725
1923.000000	0.006808
1922.000000	0.006825
1921.000000	0.006816
1920.000000	0.006810
1919.000000	0.006820
1918.000000	0.006884
1917.000000	0.007013
1916.000000	0.007112
1915.000000	0.007097
1914.000000	0.007039
1913.000000	0.007054
1912.000000	0.007133
1911.000000	0.007172
1910.000000	0.007152
1909.000000	0.007135
1908.000000	0.007118
1907.000000	0.007037
1906.000000	0.006899
1905.000000	0.006776
1904.000000	0.006674
1903.000000	0.006546
1902.000000	0.006414
1901.000000	0.006359
1900.000000	0.006385
1899.000000	0.006421
1898.000000	0.006449
1897.000000	0.006498
1896.000000	0.006539
1895.000000	0.006521
1894.000000	0.006489
1893.000000	0.006530
1892.000000	0.006635
1891.000000	0.006719
1890.000000	0.006770
1889.000000	0.006846
1888.000000	0.006913
1887.000000	0.006887
1886.000000	0.006804
1885.000000	0.006783
1884.000000	0.006839
1883.000000	0.006894
1882.000000	0.006943
1881.000000	0.007056
1880.000000	0.007219
1879.000000	0.007343
1878.000000	0.007423
1877.000000	0.007533
1876.000000	0.007683
1875.000000	0.007833
1874.000000	0.008018
1873.000000	0.008320
1872.000000	0.008732
1871.000000	0.009172
1870.000000	0.009576
1869.000000	0.009900
1868.000000	0.010050
1867.000000	0.009949
1866.000000	0.009701
1865.000000	0.009519
1864.000000	0.009478
1863.000000	0.009503
1862.000000	0.009566
1861.000000	0.009712
1860.000000	0.009908
1859.000000	0.010050
1858.000000	0.010149
1857.000000	0.010307
1856.000000	0.010524
1855.000000	0.010711
1854.000000	0.010880
1853.000000	0.011130
1852.000000	0.011448
1851.000000	0.011752
1850.000000	0.012089
1849.000000	0.012569
1848.000000	0.013110
1847.000000	0.013521
1846.000000	0.013802
1845.000000	0.014168
1844.000000	0.014726
1843.000000	0.015286
1842.000000	0.015656
1841.000000	0.015916
1840.000000	0.016214
1839.000000	0.016572
1838.000000	0.016966
1837.000000	0.017420
1836.000000	0.017944
1835.000000	0.018504
1834.000000	0.019134
1833.000000	0.019933
1832.000000	0.020873
1831.000000	0.021764
1830.000000	0.022502
1829.000000	0.023143
1828.000000	0.023665
1827.000000	0.024039
1826.000000	0.024431
1825.000000	0.025042
1824.000000	0.025798
1823.000000	0.026448
1822.000000	0.026963
1821.000000	0.027531
1820.000000	0.028216
1819.000000	0.028931
1818.000000	0.029677
1817.000000	0.030565
1816.000000	0.031565
1815.000000	0.032532
1814.000000	0.033479
1813.000000	0.034533
1812.000000	0.035651
1811.000000	0.036648
1810.000000	0.037518
1809.000000	0.038431
1808.000000	0.039435
1807.000000	0.040425
1806.000000	0.041391
1805.000000	0.042462
1804.000000	0.043695
1803.000000	0.045032
1802.000000	0.046465
1801.000000	0.048005
1800.000000	0.049517
1799.000000	0.050861
1798.000000	0.052145
1797.000000	0.053577
1796.000000	0.055124
1795.000000	0.056620
1794.000000	0.058133
1793.000000	0.059915
1792.000000	0.061968
1791.000000	0.063964
1790.000000	0.065700
1789.000000	0.067309
1788.000000	0.068965
1787.000000	0.070764
1786.000000	0.072873
1785.000000	0.075443
1784.000000	0.078295
1783.000000	0.081080
1782.000000	0.083779
1781.000000	0.086667
1780.000000	0.089842
1779.000000	0.093133
1778.000000	0.096515
1777.000000	0.100164
1776.000000	0.104080
1775.000000	0.108163
1774.000000	0.112633
1773.000000	0.117859
1772.000000	0.123628
1771.000000	0.129140
1770.000000	0.134175
1769.000000	0.139480
1768.000000	0.145688
1767.000000	0.152512
1766.000000	0.159325
1765.000000	0.166069
1764.000000	0.173190
1763.000000	0.181112
1762.000000	0.189907
1761.000000	0.199101
1760.000000	0.207903
1759.000000	0.216030
1758.000000	0.224114
1757.000000	0.232875
1756.000000	0.241939
1755.000000	0.250216
1754.000000	0.257559
1753.000000	0.265007
1752.000000	0.273399
1751.000000	0.282343
1750.000000	0.290811
1749.000000	0.298324
1748.000000	0.304891
1747.000000	0.310595
1746.000000	0.315752
1745.000000	0.320789
1744.000000	0.325719
1743.000000	0.330149
1742.000000	0.333946
1741.000000	0.337452
1740.000000	0.340801
1739.000000	0.343561
1738.000000	0.345293
1737.000000	0.346152
1736.000000	0.346632
1735.000000	0.347085
1734.000000	0.347772
1733.000000	0.348513
1732.000000	0.348498
1731.000000	0.347411
1730.000000	0.345837
1729.000000	0.344517
1728.000000	0.343542
1727.000000	0.342584
1726.000000	0.341658
1725.000000	0.341045
1724.000000	0.340743
1723.000000	0.340473
1722.000000	0.340179
1721.000000	0.340068
1720.000000	0.340223
1719.000000	0.340468
1718.000000	0.340784
1717.000000	0.341348
1716.000000	0.341816
1715.000000	0.341728
1714.000000	0.341369
1713.000000	0.341304
1712.000000	0.341598
1711.000000	0.342038
1710.000000	0.342764
1709.000000	0.344092
1708.000000	0.345902
1707.000000	0.347861
1706.000000	0.350074
1705.000000	0.352742
1704.000000	0.355325
1703.000000	0.357390
1702.000000	0.359943
1701.000000	0.364700
1700.000000	0.371410
1699.000000	0.377366
1698.000000	0.381410
1697.000000	0.385217
1696.000000	0.390573
1695.000000	0.397121
1694.000000	0.403219
1693.000000	0.408488
1692.000000	0.413683
1691.000000	0.419422
1690.000000	0.425870
1689.000000	0.432727
1688.000000	0.439326
1687.000000	0.445484
1686.000000	0.452240
1685.000000	0.460998
1684.000000	0.471390
1683.000000	0.480839
1682.000000	0.488077
1681.000000	0.494538
1680.000000	0.501509
1679.000000	0.508794
1678.000000	0.516069
1677.000000	0.524101
1676.000000	0.533836
1675.000000	0.544695
1674.000000	0.555036
1673.000000	0.564246
1672.000000	0.573008
1671.000000	0.582113
1670.000000	0.592079
1669.000000	0.602920
1668.000000	0.613573
1667.000000	0.622787
1666.000000	0.630742
1665.000000	0.638797
1664.000000	0.647813
1663.000000	0.657279
1662.000000	0.666250
1661.000000	0.674453
1660.000000	0.681996
1659.000000	0.688789
1658.000000	0.694866
1657.000000	0.700494
1656.000000	0.705946
1655.000000	0.711544
1654.000000	0.717974
1653.000000	0.726427
1652.000000	0.735092
1651.000000	0.740524
1650.000000	0.743248
1649.000000	0.745714
1648.000000	0.749129
1647.000000	0.753009
1646.000000	0.756665
1645.000000	0.760099
1644.000000	0.763172
1643.000000	0.765540
1642.000000	0.767544
1641.000000	0.770083
1640.000000	0.773279
1639.000000	0.776281
1638.000000	0.778729
1637.000000	0.781325
1636.000000	0.784554
1635.000000	0.787660
1634.000000	0.789676
1633.000000	0.790912
1632.000000	0.792027
1631.000000	0.793033
1630.000000	0.793904
1629.000000	0.794994
1628.000000	0.796338
1627.000000	0.797273
1626.000000	0.797460
1625.000000	0.797412
1624.000000	0.797422
1623.000000	0.796926
1622.000000	0.795520
1621.000000	0.793579
1620.000000	0.791373
1619.000000	0.788467
1618.000000	0.784264
1617.000000	0.778895
1616.000000	0.772963
1615.000000	0.766469
1614.000000	0.759240
1613.000000	0.751690
1612.000000	0.744256
1611.000000	0.736837
1610.000000	0.729253
1609.000000	0.721732
1608.000000	0.714441
1607.000000	0.707016
1606.000000	0.699044
1605.000000	0.690563
1604.000000	0.681693
1603.000000	0.672259
1602.000000	0.662218
1601.000000	0.651963
1600.000000	0.641853
1599.000000	0.631768
1598.000000	0.621403
1597.000000	0.610691
1596.000000	0.599623
1595.000000	0.588002
1594.000000	0.575712
1593.000000	0.562930
1592.000000	0.549891
1591.000000	0.536605
1590.000000	0.523051
1589.000000	0.509448
1588.000000	0.496064
1587.000000	0.482961
1586.000000	0.470099
1585.000000	0.457575
1584.000000	0.445505
1583.000000	0.433852
1582.000000	0.422589
1581.000000	0.411918
1580.000000	0.402075
1579.000000	0.392905
1578.000000	0.383691
1577.000000	0.373577
1576.000000	0.362870
1575.000000	0.353062
1574.000000	0.344845
1573.000000	0.337748
1572.000000	0.331122
1571.000000	0.324423
1570.000000	0.317377
1569.000000	0.310408
1568.000000	0.304163
1567.000000	0.298732
1566.000000	0.293788
1565.000000	0.289107
1564.000000	0.284761
1563.000000	0.281002
1562.000000	0.278083
1561.000000	0.276188
1560.000000	0.274297
1559.000000	0.271005
1558.000000	0.267389
1557.000000	0.264196
1556.000000	0.261149
1555.000000	0.258372
1554.000000	0.256078
1553.000000	0.254185
1552.000000	0.252433
1551.000000	0.250795
1550.000000	0.249331
1549.000000	0.247973
1548.000000	0.246655
1547.000000	0.245562
1546.000000	0.244984
1545.000000	0.244898
1544.000000	0.245038
1543.000000	0.245329
1542.000000	0.245769
1541.000000	0.245838
1540.000000	0.245298
1539.000000	0.244972
1538.000000	0.245174
1537.000000	0.245574
1536.000000	0.246215
1535.000000	0.247473
1534.000000	0.249481
1533.000000	0.251828
1532.000000	0.253965
1531.000000	0.255826
1530.000000	0.257739
1529.000000	0.259890
1528.000000	0.262283
1527.000000	0.265047
1526.000000	0.268310
1525.000000	0.271807
1524.000000	0.275242
1523.000000	0.278938
1522.000000	0.283590
1521.000000	0.289171
1520.000000	0.294499
1519.000000	0.298736
1518.000000	0.302089
1517.000000	0.304750
1516.000000	0.306427
1515.000000	0.306822
1514.000000	0.306083
1513.000000	0.304578
1512.000000	0.302522
1511.000000	0.300090
1510.000000	0.297497
1509.000000	0.294649
1508.000000	0.290415
1507.000000	0.283525
1506.000000	0.275282
1505.000000	0.267682
1504.000000	0.260893
1503.000000	0.254435
1502.000000	0.248179
1501.000000	0.242235
1500.000000	0.236596
1499.000000	0.231084
1498.000000	0.225642
1497.000000	0.220534
1496.000000	0.216196
1495.000000	0.212837
1494.000000	0.210455
1493.000000	0.209072
1492.000000	0.208720
1491.000000	0.209274
1490.000000	0.210505
1489.000000	0.212217
1488.000000	0.214217
1487.000000	0.216493
1486.000000	0.219335
1485.000000	0.223005
1484.000000	0.227487
1483.000000	0.232744
1482.000000	0.238936
1481.000000	0.246067
1480.000000	0.253770
1479.000000	0.261915
1478.000000	0.271008
1477.000000	0.281479
1476.000000	0.292999
1475.000000	0.305181
1474.000000	0.318503
1473.000000	0.333442
1472.000000	0.348933
1471.000000	0.363067
1470.000000	0.375219
1469.000000	0.385987
1468.000000	0.395860
1467.000000	0.404946
1466.000000	0.413246
1465.000000	0.420538
1464.000000	0.426336
1463.000000	0.430540
1462.000000	0.433742
1461.000000	0.436627
1460.000000	0.439540
1459.000000	0.442712
1458.000000	0.446454
1457.000000	0.450762
1456.000000	0.454611
1455.000000	0.456842
1454.000000	0.457613
1453.000000	0.457686
1452.000000	0.457461
1451.000000	0.457020
1450.000000	0.456387
1449.000000	0.455559
1448.000000	0.454460
1447.000000	0.453113
1446.000000	0.451728
1445.000000	0.450462
1444.000000	0.449363
1443.000000	0.448565
1442.000000	0.448226
1441.000000	0.448246
1440.000000	0.448350
1439.000000	0.448590
1438.000000	0.449453
1437.000000	0.451253
1436.000000	0.453545
1435.000000	0.455576
1434.000000	0.457187
1433.000000	0.458736
1432.000000	0.460479
1431.000000	0.462355
1430.000000	0.464163
1429.000000	0.465714
1428.000000	0.466835
1427.000000	0.467491
1426.000000	0.467865
1425.000000	0.468052
1424.000000	0.467825
1423.000000	0.466956
1422.000000	0.465539
1421.000000	0.463831
1420.000000	0.461869
1419.000000	0.459512
1418.000000	0.456778
1417.000000	0.453727
1416.000000	0.450386
1415.000000	0.446959
1414.000000	0.443722
1413.000000	0.440747
1412.000000	0.437945
1411.000000	0.435316
1410.000000	0.432941
1409.000000	0.430788
1408.000000	0.428773
1407.000000	0.426915
1406.000000	0.425261
1405.000000	0.423760
1404.000000	0.422336
1403.000000	0.421030
1402.000000	0.419949
1401.000000	0.419180
1400.000000	0.418784
1399.000000	0.418785
1398.000000	0.419115
1397.000000	0.419684
1396.000000	0.420579
1395.000000	0.422024
1394.000000	0.424089
1393.000000	0.426562
1392.000000	0.429249
1391.000000	0.432245
1390.000000	0.435807
1389.000000	0.440128
1388.000000	0.445177
1387.000000	0.450620
1386.000000	0.455919
1385.000000	0.460681
1384.000000	0.464915
1383.000000	0.468868
1382.000000	0.472675
1381.000000	0.476242
1380.000000	0.479432
1379.000000	0.482203
1378.000000	0.484542
1377.000000	0.486387
1376.000000	0.487669
1375.000000	0.488394
1374.000000	0.488599
1373.000000	0.488251
1372.000000	0.487259
1371.000000	0.485611
1370.000000	0.483385
1369.000000	0.480598
1368.000000	0.477218
1367.000000	0.473353
1366.000000	0.469231
1365.000000	0.465003
1364.000000	0.460663
1363.000000	0.456202
1362.000000	0.451719
1361.000000	0.447298
1360.000000	0.442973
1359.000000	0.438862
1358.000000	0.435138
1357.000000	0.431853
1356.000000	0.428947
1355.000000	0.426431
1354.000000	0.424413
1353.000000	0.422949
1352.000000	0.422022
1351.000000	0.421676
1350.000000	0.422009
1349.000000	0.423053
1348.000000	0.424773
1347.000000	0.427173
1346.000000	0.430288
1345.000000	0.434039
1344.000000	0.438249
1343.000000	0.442833
1342.000000	0.447846
1341.000000	0.453313
1340.000000	0.459104
1339.000000	0.465025
1338.000000	0.470950
1337.000000	0.476779
1336.000000	0.482404
1335.000000	0.487767
1334.000000	0.492882
1333.000000	0.497743
1332.000000	0.502283
1331.000000	0.506475
1330.000000	0.510392
1329.000000	0.514121
1328.000000	0.517735
1327.000000	0.521371
1326.000000	0.525260
1325.000000	0.529567
1324.000000	0.534322
1323.000000	0.539501
1322.000000	0.545054
1321.000000	0.550688
1320.000000	0.555726
1319.000000	0.559272
1318.000000	0.560485
1317.000000	0.558774
1316.000000	0.553895
1315.000000	0.546100
1314.000000	0.536148
1313.000000	0.524975
1312.000000	0.513430
1311.000000	0.502221
1310.000000	0.491837
1309.000000	0.482473
1308.000000	0.474117
1307.000000	0.466765
1306.000000	0.460427
1305.000000	0.454960
1304.000000	0.450087
1303.000000	0.445611
1302.000000	0.441504
1301.000000	0.437796
1300.000000	0.434543
1299.000000	0.431862
1298.000000	0.429886
1297.000000	0.428644
1296.000000	0.428091
1295.000000	0.428229
1294.000000	0.429066
1293.000000	0.430516
1292.000000	0.432436
1291.000000	0.434758
1290.000000	0.437490
1289.000000	0.440557
1288.000000	0.443790
1287.000000	0.447053
1286.000000	0.450292
1285.000000	0.453441
1284.000000	0.456379
1283.000000	0.459022
1282.000000	0.461367
1281.000000	0.463451
1280.000000	0.465355
1279.000000	0.467260
1278.000000	0.469361
1277.000000	0.471680
1276.000000	0.474058
1275.000000	0.476349
1274.000000	0.478538
1273.000000	0.480665
1272.000000	0.482759
1271.000000	0.484845
1270.000000	0.486894
1269.000000	0.488734
1268.000000	0.490155
1267.000000	0.491130
1266.000000	0.491831
1265.000000	0.492391
1264.000000	0.492774
1263.000000	0.492905
1262.000000	0.492772
1261.000000	0.492371
1260.000000	0.491702
1259.000000	0.490858
1258.000000	0.489996
1257.000000	0.489152
1256.000000	0.488242
1255.000000	0.487255
1254.000000	0.486307
1253.000000	0.485481
1252.000000	0.484740
1251.000000	0.484031
1250.000000	0.483334
1249.000000	0.482582
1248.000000	0.481654
1247.000000	0.480503
1246.000000	0.479182
1245.000000	0.477704
1244.000000	0.476013
1243.000000	0.474108
1242.000000	0.472054
1241.000000	0.469851
1240.000000	0.467429
1239.000000	0.464792
1238.000000	0.462030
1237.000000	0.459158
1236.000000	0.456085
1235.000000	0.452764
1234.000000	0.449233
1233.000000	0.445491
1232.000000	0.441466
1231.000000	0.437150
1230.000000	0.432633
1229.000000	0.427988
1228.000000	0.423245
1227.000000	0.418464
1226.000000	0.413732
1225.000000	0.409077
1224.000000	0.404494
1223.000000	0.400047
1222.000000	0.395840
1221.000000	0.391893
1220.000000	0.388163
1219.000000	0.384656
1218.000000	0.381418
1217.000000	0.378438
1216.000000	0.375674
1215.000000	0.373133
1214.000000	0.370860
1213.000000	0.368842
1212.000000	0.367042
1211.000000	0.365481
1210.000000	0.364169
1209.000000	0.363007
1208.000000	0.361843
1207.000000	0.360597
1206.000000	0.359242
1205.000000	0.357704
1204.000000	0.355882
1203.000000	0.353745
1202.000000	0.351322
1201.000000	0.348633
1200.000000	0.345730
1199.000000	0.342753
1198.000000	0.339879
1197.000000	0.337232
1196.000000	0.334941
1195.000000	0.333183
1194.000000	0.332113
1193.000000	0.331758
1192.000000	0.332097
1191.000000	0.333181
1190.000000	0.335061
1189.000000	0.337710
1188.000000	0.341066
1187.000000	0.345113
1186.000000	0.349868
1185.000000	0.355283
1184.000000	0.361330
1183.000000	0.368126
1182.000000	0.375862
1181.000000	0.384657
1180.000000	0.394472
1179.000000	0.405237
1178.000000	0.416957
1177.000000	0.429693
1176.000000	0.443575
1175.000000	0.458763
1174.000000	0.475383
1173.000000	0.493420
1172.000000	0.512707
1171.000000	0.533060
1170.000000	0.554336
1169.000000	0.576296
1168.000000	0.598476
1167.000000	0.620319
1166.000000	0.641305
1165.000000	0.660933
1164.000000	0.678634
1163.000000	0.693935
1162.000000	0.706800
1161.000000	0.717407
1160.000000	0.725924
1159.000000	0.732609
1158.000000	0.737844
1157.000000	0.741939
1156.000000	0.744836
1155.000000	0.746446
1154.000000	0.746996
1153.000000	0.746739
1152.000000	0.745694
1151.000000	0.743830
1150.000000	0.741347
1149.000000	0.738452
1148.000000	0.735067
1147.000000	0.731091
1146.000000	0.726666
1145.000000	0.721990
1144.000000	0.717128
1143.000000	0.712225
1142.000000	0.707664
1141.000000	0.703795
1140.000000	0.700747
1139.000000	0.698656
1138.000000	0.697880
1137.000000	0.698683
1136.000000	0.700998
1135.000000	0.704674
1134.000000	0.709701
1133.000000	0.716073
1132.000000	0.723523
1131.000000	0.731702
1130.000000	0.740448
1129.000000	0.749618
1128.000000	0.758897
1127.000000	0.768006
1126.000000	0.776936
1125.000000	0.785709
1124.000000	0.794138
1123.000000	0.802120
1122.000000	0.809961
1121.000000	0.818048
1120.000000	0.826416
1119.000000	0.834982
1118.000000	0.843915
1117.000000	0.853379
1116.000000	0.863107
1115.000000	0.872641
1114.000000	0.881820
1113.000000	0.890585
1112.000000	0.898606
1111.000000	0.905583
1110.000000	0.911603
1109.000000	0.916825
1108.000000	0.920994
1107.000000	0.923836
1106.000000	0.925578
1105.000000	0.926496
1104.000000	0.926429
1103.000000	0.925214
1102.000000	0.923258
1101.000000	0.921169
1100.000000	0.919156
1099.000000	0.917325
1098.000000	0.916131
1097.000000	0.916015
1096.000000	0.916935
1095.000000	0.918812
1094.000000	0.922001
1093.000000	0.926897
1092.000000	0.933409
1091.000000	0.941252
1090.000000	0.950525
1089.000000	0.961350
1088.000000	0.973285
1087.000000	0.985728
1086.000000	0.998553
1085.000000	1.011803
1084.000000	1.024998
1083.000000	1.037484
1082.000000	1.049120
1081.000000	1.059914
1080.000000	1.069187
1079.000000	1.076029
1078.000000	1.080236
1077.000000	1.081907
1076.000000	1.080823
1075.000000	1.076966
1074.000000	1.071247
1073.000000	1.064851
1072.000000	1.058370
1071.000000	1.052353
1070.000000	1.047932
1069.000000	1.046107
1068.000000	1.046913
1067.000000	1.049988
1066.000000	1.055328
1065.000000	1.062883
1064.000000	1.071900
1063.000000	1.081440
1062.000000	1.091261
1061.000000	1.101331
1060.000000	1.111044
1059.000000	1.119805
1058.000000	1.127928
1057.000000	1.135926
1056.000000	1.143445
1055.000000	1.149831
1054.000000	1.155235
1053.000000	1.160127
1052.000000	1.164176
1051.000000	1.166870
1050.000000	1.168659
1049.000000	1.170295
1048.000000	1.171721
1047.000000	1.172681
1046.000000	1.173733
1045.000000	1.175526
1044.000000	1.177809
1043.000000	1.180151
1042.000000	1.182902
1041.000000	1.186465
1040.000000	1.190347
1039.000000	1.194036
1038.000000	1.198050
1037.000000	1.202942
1036.000000	1.207981
1035.000000	1.212008
1034.000000	1.214966
1033.000000	1.217397
1032.000000	1.219112
1031.000000	1.219673
1030.000000	1.219523
1029.000000	1.219278
1028.000000	1.218613
1027.000000	1.216957
1026.000000	1.214581
1025.000000	1.211945
1024.000000	1.208646
1023.000000	1.204229
1022.000000	1.199188
1021.000000	1.194031
1020.000000	1.188208
1019.000000	1.180984
1018.000000	1.172681
1017.000000	1.163960
1016.000000	1.154612
1015.000000	1.144151
1014.000000	1.132771
1013.000000	1.120908
1012.000000	1.108508
1011.000000	1.095491
1010.000000	1.082318
1009.000000	1.069296
1008.000000	1.056060
1007.000000	1.042334
1006.000000	1.028493
1005.000000	1.014881
1004.000000	1.001213
1003.000000	0.987208
1002.000000	0.973155
1001.000000	0.959302
1000.000000	0.945362
999.000000	0.931076
998.000000	0.916704
997.000000	0.902523
996.000000	0.888264
995.000000	0.873559
994.000000	0.858356
993.000000	0.842592
992.000000	0.825953
991.000000	0.808209
990.000000	0.789498
989.000000	0.769891
988.000000	0.749111
987.000000	0.727009
986.000000	0.703754
985.000000	0.679558
984.000000	0.654502
983.000000	0.628796
982.000000	0.602960
981.000000	0.577448
980.000000	0.552491
979.000000	0.528311
978.000000	0.505191
977.000000	0.483313
976.000000	0.462695
975.000000	0.443352
974.000000	0.425317
973.000000	0.408544
972.000000	0.392917
971.000000	0.378392
970.000000	0.364951
969.000000	0.352459
968.000000	0.340739
967.000000	0.329692
966.000000	0.319268
965.000000	0.309353
964.000000	0.299803
963.000000	0.290576
962.000000	0.281668
961.000000	0.273023
960.000000	0.264581
959.000000	0.256360
958.000000	0.248387
957.000000	0.240601
956.000000	0.232932
955.000000	0.225403
954.000000	0.218052
953.000000	0.210866
952.000000	0.203862
951.000000	0.197153
950.000000	0.190871
949.000000	0.185069
948.000000	0.179820
947.000000	0.175255
946.000000	0.171422
945.000000	0.168213
944.000000	0.165465
943.000000	0.163085
942.000000	0.160972
941.000000	0.158967
940.000000	0.156981
939.000000	0.155056
938.000000	0.153254
937.000000	0.151556
936.000000	0.149950
935.000000	0.148505
934.000000	0.147253
933.000000	0.146132
932.000000	0.145094
931.000000	0.144166
930.000000	0.143333
929.000000	0.142470
928.000000	0.141472
927.000000	0.140331
926.000000	0.139021
925.000000	0.137410
924.000000	0.135401
923.000000	0.133027
922.000000	0.130344
921.000000	0.127342
920.000000	0.124026
919.000000	0.120497
918.000000	0.116848
917.000000	0.113080
916.000000	0.109189
915.000000	0.105203
914.000000	0.101079
913.000000	0.096679
912.000000	0.091952
911.000000	0.087028
910.000000	0.082077
909.000000	0.077207
908.000000	0.072564
907.000000	0.068382
906.000000	0.064822
905.000000	0.061887
904.000000	0.059538
903.000000	0.057768
902.000000	0.056504
901.000000	0.055549
900.000000	0.054738
899.000000	0.054009
898.000000	0.053265
897.000000	0.052330
896.000000	0.051098
895.000000	0.049606
894.000000	0.047897
893.000000	0.045944
892.000000	0.043761
891.000000	0.041451
890.000000	0.039052
889.000000	0.036479
888.000000	0.033691
887.000000	0.030786
886.000000	0.027864
885.000000	0.024946
884.000000	0.022093
883.000000	0.019457
882.000000	0.017128
881.000000	0.015075
880.000000	0.013308
879.000000	0.011949
878.000000	0.011050
877.000000	0.010522
876.000000	0.010290
875.000000	0.010379
874.000000	0.010772
873.000000	0.011339
872.000000	0.011985
871.000000	0.012733
870.000000	0.013602
869.000000	0.014553
868.000000	0.015600
867.000000	0.016814
866.000000	0.018133
865.000000	0.019310
864.000000	0.020110
863.000000	0.020457
862.000000	0.020353
861.000000	0.019837
860.000000	0.019064
859.000000	0.018259
858.000000	0.017516
857.000000	0.016730
856.000000	0.015792
855.000000	0.014707
854.000000	0.013497
853.000000	0.012151
852.000000	0.010737
851.000000	0.009410
850.000000	0.008239
849.000000	0.007169
848.000000	0.006208
847.000000	0.005481
846.000000	0.005061
845.000000	0.004894
844.000000	0.004985
843.000000	0.005472
842.000000	0.006456
841.000000	0.007898
840.000000	0.009718
839.000000	0.011880
838.000000	0.014285
837.000000	0.016747
836.000000	0.019109
835.000000	0.021251
834.000000	0.022972
833.000000	0.024033
832.000000	0.024420
831.000000	0.024397
830.000000	0.024263
829.000000	0.024178
828.000000	0.024280
827.000000	0.024763
826.000000	0.025713
825.000000	0.027020
824.000000	0.028543
823.000000	0.030228
822.000000	0.032009
821.000000	0.033763
820.000000	0.035449
819.000000	0.037134
818.000000	0.038837
817.000000	0.040483
816.000000	0.042058
815.000000	0.043656
814.000000	0.045316
813.000000	0.046990
812.000000	0.048725
811.000000	0.050726
810.000000	0.053151
809.000000	0.055984
808.000000	0.059180
807.000000	0.062766
806.000000	0.066734
805.000000	0.070973
804.000000	0.075384
803.000000	0.079945
802.000000	0.084585
801.000000	0.089105
800.000000	0.093305
799.000000	0.097084
798.000000	0.100371
797.000000	0.103135
796.000000	0.105542
795.000000	0.107969
794.000000	0.110752
793.000000	0.114025
792.000000	0.117882
791.000000	0.122573
790.000000	0.128483
789.000000	0.136000
788.000000	0.145464
787.000000	0.157022
786.000000	0.170404
785.000000	0.184790
784.000000	0.198955
783.000000	0.211487
782.000000	0.221025
781.000000	0.226624
780.000000	0.228151
779.000000	0.226355
778.000000	0.222380
777.000000	0.217292
776.000000	0.211919
775.000000	0.206865
774.000000	0.202440
773.000000	0.198629
772.000000	0.195302
771.000000	0.192390
770.000000	0.189859
769.000000	0.187645
768.000000	0.185727
767.000000	0.184135
766.000000	0.182782
765.000000	0.181399
764.000000	0.179723
763.000000	0.177659
762.000000	0.175210
761.000000	0.172371
760.000000	0.169190
759.000000	0.165816
758.000000	0.162375
757.000000	0.158885
756.000000	0.155368
755.000000	0.151925
754.000000	0.148639
753.000000	0.145510
752.000000	0.142564
751.000000	0.139897
750.000000	0.137548
749.000000	0.135439
748.000000	0.133518
747.000000	0.131830
746.000000	0.130399
745.000000	0.129149
744.000000	0.128037
743.000000	0.127141
742.000000	0.126552
741.000000	0.126264
740.000000	0.126241
739.000000	0.126481
738.000000	0.126972
737.000000	0.127686
736.000000	0.128660
735.000000	0.129998
734.000000	0.131722
733.000000	0.133745
732.000000	0.135998
731.000000	0.138463
730.000000	0.141057
729.000000	0.143645
728.000000	0.146227
727.000000	0.148968
726.000000	0.151969
725.000000	0.155150
724.000000	0.158403
723.000000	0.161747
722.000000	0.165213
721.000000	0.168691
720.000000	0.171992
719.000000	0.175005
718.000000	0.177728
717.000000	0.180244
716.000000	0.182716
715.000000	0.185281
714.000000	0.187871
713.000000	0.190240
712.000000	0.192239
711.000000	0.193971
710.000000	0.195588
709.000000	0.197110
708.000000	0.198493
707.000000	0.199764
706.000000	0.200961
705.000000	0.202063
704.000000	0.203104
703.000000	0.204252
702.000000	0.205680
701.000000	0.207443
700.000000	0.209557
699.000000	0.212042
698.000000	0.214774
697.000000	0.217391
696.000000	0.219475
695.000000	0.220833
694.000000	0.221512
693.000000	0.221667
692.000000	0.221515
691.000000	0.221302
690.000000	0.221176
689.000000	0.221172
688.000000	0.221363
687.000000	0.221909
686.000000	0.222851
685.000000	0.224033
684.000000	0.225349
683.000000	0.226910
682.000000	0.228864
681.000000	0.231177
680.000000	0.233753
679.000000	0.236616
678.000000	0.239793
677.000000	0.243153
676.000000	0.246533
675.000000	0.249833
674.000000	0.252970
673.000000	0.255793
672.000000	0.258144
671.000000	0.260012
670.000000	0.261574
669.000000	0.263030
668.000000	0.264455
667.000000	0.265761
666.000000	0.266696
665.000000	0.267103
664.000000	0.267046
663.000000	0.266657
662.000000	0.266025
661.000000	0.265122
660.000000	0.263949
659.000000	0.262682
658.000000	0.261544
657.000000	0.260620
656.000000	0.259896
655.000000	0.259361
654.000000	0.259056
653.000000	0.259066
652.000000	0.259420
651.000000	0.260013
650.000000	0.260652
649.000000	0.261239
648.000000	0.261897
647.000000	0.262815
646.000000	0.263953
645.000000	0.264990
644.000000	0.265647
643.000000	0.265982
642.000000	0.266271
641.000000	0.266695
640.000000	0.267203
639.000000	0.267665
638.000000	0.268026
637.000000	0.268336
636.000000	0.268671
635.000000	0.269056
634.000000	0.269438
633.000000	0.269773
632.000000	0.270137
631.000000	0.270682
630.000000	0.271442
629.000000	0.272300
628.000000	0.273194
627.000000	0.274247
626.000000	0.275635
625.000000	0.277385
624.000000	0.279369
623.000000	0.281419
622.000000	0.283372
621.000000	0.285116
620.000000	0.286671
619.000000	0.288147
618.000000	0.289544
617.000000	0.290665
616.000000	0.291327
615.000000	0.291597
614.000000	0.291754
613.000000	0.292054
612.000000	0.292566
611.000000	0.293124
610.000000	0.293380
609.000000	0.293021
608.000000	0.292065
607.000000	0.290893
606.000000	0.289924
605.000000	0.289277
604.000000	0.288822
603.000000	0.288384
602.000000	0.287820
601.000000	0.287054
600.000000	0.286236
599.000000	0.285741
598.000000	0.285825
597.000000	0.286337
596.000000	0.286892
595.000000	0.287232
594.000000	0.287317
593.000000	0.287209
592.000000	0.287043
591.000000	0.287055
590.000000	0.287457
589.000000	0.288301
588.000000	0.289526
587.000000	0.291053
586.000000	0.292758
585.000000	0.294510
584.000000	0.296321
583.000000	0.298349
582.000000	0.300626
581.000000	0.302886
580.000000	0.304792
579.000000	0.306235
578.000000	0.307298
577.000000	0.307986
576.000000	0.308160
575.000000	0.307744
574.000000	0.306864
573.000000	0.305756
572.000000	0.304560
571.000000	0.303229
570.000000	0.301625
569.000000	0.299761
568.000000	0.297942
567.000000	0.296511
566.000000	0.295466
565.000000	0.294536
564.000000	0.293677
563.000000	0.293184
562.000000	0.293159
561.000000	0.293195
560.000000	0.292794
559.000000	0.291902
558.000000	0.290800
557.000000	0.289643
556.000000	0.288382
555.000000	0.287030
554.000000	0.285784
553.000000	0.284894
552.000000	0.284543
551.000000	0.284767
550.000000	0.285351
549.000000	0.286017
548.000000	0.286772
547.000000	0.287945
546.000000	0.289815
545.000000	0.292382
544.000000	0.295566
543.000000	0.299315
542.000000	0.303408
541.000000	0.307472
540.000000	0.311390
539.000000	0.315427
538.000000	0.319742
537.000000	0.323947
536.000000	0.327290
535.000000	0.329274
534.000000	0.330023
533.000000	0.330096
532.000000	0.330012
531.000000	0.329883
530.000000	0.329486
529.000000	0.328683
528.000000	0.327707
527.000000	0.326921
526.000000	0.326373
525.000000	0.325849
524.000000	0.325373
523.000000	0.325295
522.000000	0.325776
521.000000	0.326368
520.000000	0.326260
519.000000	0.324859
518.000000	0.322154
517.000000	0.318668
516.000000	0.315008
515.000000	0.311310
514.000000	0.307038
513.000000	0.301495
512.000000	0.294656
511.000000	0.287385
510.000000	0.280799
509.000000	0.275442
508.000000	0.271019
507.000000	0.266645
506.000000	0.261564
505.000000	0.256062
504.000000	0.251489
503.000000	0.248890
502.000000	0.247472
501.000000	0.245140
500.000000	0.240858
499.000000	0.235590
498.000000	0.230823
497.000000	0.227102
496.000000	0.224336
495.000000	0.222607
494.000000	0.221941
493.000000	0.221731
492.000000	0.221183
491.000000	0.220213
490.000000	0.219475
489.000000	0.219652
488.000000	0.221074
487.000000	0.223610
486.000000	0.226522
485.000000	0.228906
484.000000	0.230668
483.000000	0.232666
482.000000	0.235485
481.000000	0.238617
480.000000	0.241195
479.000000	0.242971
478.000000	0.244171
477.000000	0.244904
476.000000	0.245183
475.000000	0.245157
474.000000	0.244877
473.000000	0.244008
472.000000	0.242278
471.000000	0.239916
470.000000	0.237096
469.000000	0.233505
468.000000	0.228919
467.000000	0.223773
466.000000	0.218711
465.000000	0.213900
464.000000	0.209260
463.000000	0.204855
462.000000	0.200527
461.000000	0.195678
460.000000	0.189982
459.000000	0.183923
458.000000	0.178156
457.000000	0.172727
456.000000	0.167425
455.000000	0.162302
454.000000	0.157331
453.000000	0.152207
452.000000	0.146938
451.000000	0.142127
450.000000	0.138227
449.000000	0.135021
448.000000	0.132251
447.000000	0.129964
446.000000	0.127833
445.000000	0.125050
444.000000	0.121480
443.000000	0.118125
442.000000	0.115823
441.000000	0.114170
440.000000	0.112420
439.000000	0.110482
438.000000	0.108347
437.000000	0.105536
436.000000	0.101994
435.000000	0.098813
434.000000	0.096944
433.000000	0.095879
432.000000	0.094379
431.000000	0.091750
430.000000	0.087980
429.000000	0.083577
428.000000	0.079710
427.000000	0.077619
426.000000	0.076956
425.000000	0.075691
424.000000	0.072582
423.000000	0.068599
422.000000	0.065107
421.000000	0.062105
420.000000	0.059325
419.000000	0.057259
418.000000	0.055519
417.000000	0.052170
416.000000	0.046387
415.000000	0.039792
414.000000	0.034577
413.000000	0.031351
412.000000	0.029380
411.000000	0.027747
410.000000	0.024794
409.000000	0.018626
408.000000	0.009765
407.000000	0.001739
406.000000	-0.002253
405.000000	-0.002021
404.000000	0.001397
403.000000	0.006890
402.000000	0.011680
401.000000	0.011639
400.000000	0.007139
