PE IR       SUBTECH     SPECTRUM    ASCII       PEDS        4.00        
   -1
G001-70C.asc
17/02/23
10:52:07.00
17/02/23
10:52:36.00
Administrator
Sample 125 By Administrator Date Thursday, February 23 2017
400.000000
#HDR
-1
-1
#GR
cm-1
A
1.0
0.0
4000.000000
-1.000000
3601
8
1.236187
0.000066
#DATA
4000.000000	0.005690
3999.000000	0.005841
3998.000000	0.005997
3997.000000	0.006155
3996.000000	0.006314
3995.000000	0.006473
3994.000000	0.006631
3993.000000	0.006788
3992.000000	0.006940
3991.000000	0.007082
3990.000000	0.007210
3989.000000	0.007330
3988.000000	0.007454
3987.000000	0.007591
3986.000000	0.007740
3985.000000	0.007894
3984.000000	0.008045
3983.000000	0.008186
3982.000000	0.008316
3981.000000	0.008443
3980.000000	0.008580
3979.000000	0.008740
3978.000000	0.008929
3977.000000	0.009133
3976.000000	0.009328
3975.000000	0.009499
3974.000000	0.009643
3973.000000	0.009768
3972.000000	0.009886
3971.000000	0.010001
3970.000000	0.010114
3969.000000	0.010224
3968.000000	0.010336
3967.000000	0.010459
3966.000000	0.010605
3965.000000	0.010780
3964.000000	0.010975
3963.000000	0.011169
3962.000000	0.011344
3961.000000	0.011493
3960.000000	0.011624
3959.000000	0.011753
3958.000000	0.011884
3957.000000	0.012016
3956.000000	0.012151
3955.000000	0.012302
3954.000000	0.012486
3953.000000	0.012716
3952.000000	0.012988
3951.000000	0.013278
3950.000000	0.013556
3949.000000	0.013802
3948.000000	0.014013
3947.000000	0.014207
3946.000000	0.014404
3945.000000	0.014602
3944.000000	0.014769
3943.000000	0.014865
3942.000000	0.014884
3941.000000	0.014865
3940.000000	0.014857
3939.000000	0.014893
3938.000000	0.014983
3937.000000	0.015140
3936.000000	0.015389
3935.000000	0.015737
3934.000000	0.016141
3933.000000	0.016510
3932.000000	0.016766
3931.000000	0.016903
3930.000000	0.016979
3929.000000	0.017062
3928.000000	0.017181
3927.000000	0.017334
3926.000000	0.017503
3925.000000	0.017663
3924.000000	0.017811
3923.000000	0.017978
3922.000000	0.018204
3921.000000	0.018486
3920.000000	0.018772
3919.000000	0.019010
3918.000000	0.019168
3917.000000	0.019235
3916.000000	0.019204
3915.000000	0.019106
3914.000000	0.018995
3913.000000	0.018914
3912.000000	0.018886
3911.000000	0.018952
3910.000000	0.019173
3909.000000	0.019599
3908.000000	0.020222
3907.000000	0.020976
3906.000000	0.021781
3905.000000	0.022574
3904.000000	0.023310
3903.000000	0.023940
3902.000000	0.024402
3901.000000	0.024635
3900.000000	0.024599
3899.000000	0.024328
3898.000000	0.023957
3897.000000	0.023663
3896.000000	0.023548
3895.000000	0.023595
3894.000000	0.023700
3893.000000	0.023793
3892.000000	0.023903
3891.000000	0.024091
3890.000000	0.024375
3889.000000	0.024746
3888.000000	0.025193
3887.000000	0.025673
3886.000000	0.026121
3885.000000	0.026506
3884.000000	0.026844
3883.000000	0.027140
3882.000000	0.027325
3881.000000	0.027336
3880.000000	0.027211
3879.000000	0.027091
3878.000000	0.027113
3877.000000	0.027329
3876.000000	0.027696
3875.000000	0.028132
3874.000000	0.028566
3873.000000	0.028980
3872.000000	0.029408
3871.000000	0.029876
3870.000000	0.030342
3869.000000	0.030735
3868.000000	0.031051
3867.000000	0.031353
3866.000000	0.031612
3865.000000	0.031701
3864.000000	0.031584
3863.000000	0.031392
3862.000000	0.031296
3861.000000	0.031386
3860.000000	0.031678
3859.000000	0.032167
3858.000000	0.032852
3857.000000	0.033682
3856.000000	0.034512
3855.000000	0.035156
3854.000000	0.035666
3853.000000	0.036196
3852.000000	0.036616
3851.000000	0.036721
3850.000000	0.036512
3849.000000	0.036110
3848.000000	0.035666
3847.000000	0.035341
3846.000000	0.035248
3845.000000	0.035435
3844.000000	0.035893
3843.000000	0.036547
3842.000000	0.037280
3841.000000	0.037993
3840.000000	0.038613
3839.000000	0.039136
3838.000000	0.039621
3837.000000	0.040090
3836.000000	0.040469
3835.000000	0.040656
3834.000000	0.040626
3833.000000	0.040452
3832.000000	0.040253
3831.000000	0.040134
3830.000000	0.040146
3829.000000	0.040279
3828.000000	0.040525
3827.000000	0.040904
3826.000000	0.041431
3825.000000	0.042091
3824.000000	0.042824
3823.000000	0.043527
3822.000000	0.044158
3821.000000	0.044740
3820.000000	0.045258
3819.000000	0.045664
3818.000000	0.045936
3817.000000	0.046070
3816.000000	0.046079
3815.000000	0.046023
3814.000000	0.046017
3813.000000	0.046149
3812.000000	0.046406
3811.000000	0.046700
3810.000000	0.046968
3809.000000	0.047242
3808.000000	0.047665
3807.000000	0.048348
3806.000000	0.049238
3805.000000	0.050169
3804.000000	0.050986
3803.000000	0.051606
3802.000000	0.052074
3801.000000	0.052503
3800.000000	0.052939
3799.000000	0.053330
3798.000000	0.053579
3797.000000	0.053620
3796.000000	0.053491
3795.000000	0.053339
3794.000000	0.053318
3793.000000	0.053469
3792.000000	0.053729
3791.000000	0.054040
3790.000000	0.054409
3789.000000	0.054862
3788.000000	0.055384
3787.000000	0.055935
3786.000000	0.056508
3785.000000	0.057125
3784.000000	0.057794
3783.000000	0.058496
3782.000000	0.059185
3781.000000	0.059803
3780.000000	0.060310
3779.000000	0.060728
3778.000000	0.061118
3777.000000	0.061549
3776.000000	0.062065
3775.000000	0.062671
3774.000000	0.063336
3773.000000	0.064023
3772.000000	0.064722
3771.000000	0.065448
3770.000000	0.066216
3769.000000	0.067011
3768.000000	0.067785
3767.000000	0.068503
3766.000000	0.069160
3765.000000	0.069763
3764.000000	0.070343
3763.000000	0.070966
3762.000000	0.071677
3761.000000	0.072429
3760.000000	0.073152
3759.000000	0.073885
3758.000000	0.074722
3757.000000	0.075682
3756.000000	0.076725
3755.000000	0.077833
3754.000000	0.078988
3753.000000	0.080099
3752.000000	0.081123
3751.000000	0.082248
3750.000000	0.083644
3749.000000	0.085137
3748.000000	0.086416
3747.000000	0.087349
3746.000000	0.088029
3745.000000	0.088652
3744.000000	0.089325
3743.000000	0.089990
3742.000000	0.090605
3741.000000	0.091197
3740.000000	0.091785
3739.000000	0.092440
3738.000000	0.093313
3737.000000	0.094479
3736.000000	0.095756
3735.000000	0.096831
3734.000000	0.097581
3733.000000	0.098117
3732.000000	0.098584
3731.000000	0.099053
3730.000000	0.099586
3729.000000	0.100267
3728.000000	0.101139
3727.000000	0.102152
3726.000000	0.103228
3725.000000	0.104336
3724.000000	0.105468
3723.000000	0.106590
3722.000000	0.107672
3721.000000	0.108723
3720.000000	0.109785
3719.000000	0.110937
3718.000000	0.112251
3717.000000	0.113738
3716.000000	0.115384
3715.000000	0.117189
3714.000000	0.119152
3713.000000	0.121230
3712.000000	0.123369
3711.000000	0.125545
3710.000000	0.127716
3709.000000	0.129815
3708.000000	0.131803
3707.000000	0.133697
3706.000000	0.135584
3705.000000	0.137555
3704.000000	0.139661
3703.000000	0.141920
3702.000000	0.144327
3701.000000	0.146809
3700.000000	0.149217
3699.000000	0.151432
3698.000000	0.153432
3697.000000	0.155232
3696.000000	0.156865
3695.000000	0.158425
3694.000000	0.160026
3693.000000	0.161696
3692.000000	0.163371
3691.000000	0.165034
3690.000000	0.166848
3689.000000	0.168995
3688.000000	0.171368
3687.000000	0.173668
3686.000000	0.175759
3685.000000	0.177721
3684.000000	0.179698
3683.000000	0.181838
3682.000000	0.184305
3681.000000	0.187202
3680.000000	0.190464
3679.000000	0.193953
3678.000000	0.197685
3677.000000	0.201853
3676.000000	0.206542
3675.000000	0.211448
3674.000000	0.216109
3673.000000	0.220395
3672.000000	0.224493
3671.000000	0.228569
3670.000000	0.232666
3669.000000	0.236760
3668.000000	0.240792
3667.000000	0.244710
3666.000000	0.248522
3665.000000	0.252300
3664.000000	0.256186
3663.000000	0.260349
3662.000000	0.264864
3661.000000	0.269636
3660.000000	0.274492
3659.000000	0.279380
3658.000000	0.284437
3657.000000	0.289795
3656.000000	0.295359
3655.000000	0.300870
3654.000000	0.306201
3653.000000	0.311445
3652.000000	0.316749
3651.000000	0.322208
3650.000000	0.327898
3649.000000	0.333810
3648.000000	0.339662
3647.000000	0.345031
3646.000000	0.349722
3645.000000	0.353866
3644.000000	0.357744
3643.000000	0.361637
3642.000000	0.365731
3641.000000	0.370108
3640.000000	0.374769
3639.000000	0.379673
3638.000000	0.384756
3637.000000	0.389972
3636.000000	0.395316
3635.000000	0.400777
3634.000000	0.406250
3633.000000	0.411608
3632.000000	0.416912
3631.000000	0.422474
3630.000000	0.428621
3629.000000	0.435276
3628.000000	0.441871
3627.000000	0.447864
3626.000000	0.453141
3625.000000	0.457831
3624.000000	0.462074
3623.000000	0.466044
3622.000000	0.469973
3621.000000	0.474032
3620.000000	0.478245
3619.000000	0.482543
3618.000000	0.486823
3617.000000	0.490974
3616.000000	0.494954
3615.000000	0.498829
3614.000000	0.502719
3613.000000	0.506688
3612.000000	0.510761
3611.000000	0.515008
3610.000000	0.519504
3609.000000	0.524177
3608.000000	0.528808
3607.000000	0.533247
3606.000000	0.537501
3605.000000	0.541629
3604.000000	0.545675
3603.000000	0.549730
3602.000000	0.553940
3601.000000	0.558358
3600.000000	0.562884
3599.000000	0.567409
3598.000000	0.571919
3597.000000	0.576453
3596.000000	0.581041
3595.000000	0.585703
3594.000000	0.590414
3593.000000	0.595072
3592.000000	0.599587
3591.000000	0.604047
3590.000000	0.608707
3589.000000	0.613757
3588.000000	0.619140
3587.000000	0.624591
3586.000000	0.629787
3585.000000	0.634497
3584.000000	0.638694
3583.000000	0.642572
3582.000000	0.646408
3581.000000	0.650356
3580.000000	0.654432
3579.000000	0.658647
3578.000000	0.663038
3577.000000	0.667570
3576.000000	0.672139
3575.000000	0.676713
3574.000000	0.681345
3573.000000	0.686054
3572.000000	0.690795
3571.000000	0.695579
3570.000000	0.700502
3569.000000	0.705610
3568.000000	0.710811
3567.000000	0.715953
3566.000000	0.720907
3565.000000	0.725563
3564.000000	0.729886
3563.000000	0.733977
3562.000000	0.737991
3561.000000	0.741994
3560.000000	0.745977
3559.000000	0.749983
3558.000000	0.754094
3557.000000	0.758303
3556.000000	0.762540
3555.000000	0.766818
3554.000000	0.771226
3553.000000	0.775747
3552.000000	0.780243
3551.000000	0.784633
3550.000000	0.788999
3549.000000	0.793477
3548.000000	0.798140
3547.000000	0.802976
3546.000000	0.807833
3545.000000	0.812427
3544.000000	0.816536
3543.000000	0.820203
3542.000000	0.823660
3541.000000	0.827105
3540.000000	0.830665
3539.000000	0.834475
3538.000000	0.838586
3537.000000	0.842816
3536.000000	0.846874
3535.000000	0.850662
3534.000000	0.854320
3533.000000	0.857992
3532.000000	0.861714
3531.000000	0.865511
3530.000000	0.869418
3529.000000	0.873405
3528.000000	0.877416
3527.000000	0.881497
3526.000000	0.885715
3525.000000	0.889963
3524.000000	0.893986
3523.000000	0.897648
3522.000000	0.901026
3521.000000	0.904266
3520.000000	0.907480
3519.000000	0.910784
3518.000000	0.914255
3517.000000	0.917848
3516.000000	0.921469
3515.000000	0.925084
3514.000000	0.928674
3513.000000	0.932140
3512.000000	0.935421
3511.000000	0.938634
3510.000000	0.941938
3509.000000	0.945316
3508.000000	0.948648
3507.000000	0.951957
3506.000000	0.955386
3505.000000	0.958961
3504.000000	0.962536
3503.000000	0.965974
3502.000000	0.969210
3501.000000	0.972195
3500.000000	0.974959
3499.000000	0.977674
3498.000000	0.980493
3497.000000	0.983357
3496.000000	0.986108
3495.000000	0.988734
3494.000000	0.991338
3493.000000	0.993944
3492.000000	0.996512
3491.000000	0.999088
3490.000000	1.001766
3489.000000	1.004512
3488.000000	1.007214
3487.000000	1.009844
3486.000000	1.012431
3485.000000	1.014945
3484.000000	1.017382
3483.000000	1.019885
3482.000000	1.022578
3481.000000	1.025330
3480.000000	1.027884
3479.000000	1.030151
3478.000000	1.032231
3477.000000	1.034218
3476.000000	1.036167
3475.000000	1.038210
3474.000000	1.040477
3473.000000	1.042964
3472.000000	1.045589
3471.000000	1.048335
3470.000000	1.051151
3469.000000	1.053825
3468.000000	1.056130
3467.000000	1.058065
3466.000000	1.059787
3465.000000	1.061411
3464.000000	1.063031
3463.000000	1.064815
3462.000000	1.066860
3461.000000	1.069021
3460.000000	1.071069
3459.000000	1.072960
3458.000000	1.074786
3457.000000	1.076573
3456.000000	1.078306
3455.000000	1.080055
3454.000000	1.081885
3453.000000	1.083734
3452.000000	1.085528
3451.000000	1.087330
3450.000000	1.089213
3449.000000	1.091091
3448.000000	1.092843
3447.000000	1.094503
3446.000000	1.096146
3445.000000	1.097718
3444.000000	1.099145
3443.000000	1.100516
3442.000000	1.101963
3441.000000	1.103482
3440.000000	1.105040
3439.000000	1.106724
3438.000000	1.108574
3437.000000	1.110371
3436.000000	1.111813
3435.000000	1.112831
3434.000000	1.113587
3433.000000	1.114250
3432.000000	1.114945
3431.000000	1.115764
3430.000000	1.116661
3429.000000	1.117418
3428.000000	1.117894
3427.000000	1.118215
3426.000000	1.118569
3425.000000	1.118971
3424.000000	1.119377
3423.000000	1.119866
3422.000000	1.120502
3421.000000	1.121144
3420.000000	1.121610
3419.000000	1.121916
3418.000000	1.122189
3417.000000	1.122479
3416.000000	1.122805
3415.000000	1.123244
3414.000000	1.123789
3413.000000	1.124258
3412.000000	1.124507
3411.000000	1.124619
3410.000000	1.124712
3409.000000	1.124717
3408.000000	1.124547
3407.000000	1.124328
3406.000000	1.124278
3405.000000	1.124479
3404.000000	1.124914
3403.000000	1.125573
3402.000000	1.126319
3401.000000	1.126800
3400.000000	1.126732
3399.000000	1.126201
3398.000000	1.125522
3397.000000	1.124938
3396.000000	1.124586
3395.000000	1.124595
3394.000000	1.124961
3393.000000	1.125409
3392.000000	1.125592
3391.000000	1.125386
3390.000000	1.124880
3389.000000	1.124207
3388.000000	1.123523
3387.000000	1.123020
3386.000000	1.122768
3385.000000	1.122644
3384.000000	1.122517
3383.000000	1.122414
3382.000000	1.122379
3381.000000	1.122320
3380.000000	1.122150
3379.000000	1.121935
3378.000000	1.121756
3377.000000	1.121552
3376.000000	1.121254
3375.000000	1.120948
3374.000000	1.120759
3373.000000	1.120703
3372.000000	1.120759
3371.000000	1.120939
3370.000000	1.121152
3369.000000	1.121147
3368.000000	1.120743
3367.000000	1.120019
3366.000000	1.119150
3365.000000	1.118219
3364.000000	1.117298
3363.000000	1.116540
3362.000000	1.116004
3361.000000	1.115522
3360.000000	1.114897
3359.000000	1.114131
3358.000000	1.113330
3357.000000	1.112516
3356.000000	1.111679
3355.000000	1.110901
3354.000000	1.110253
3353.000000	1.109663
3352.000000	1.108992
3351.000000	1.108158
3350.000000	1.107101
3349.000000	1.105771
3348.000000	1.104248
3347.000000	1.102750
3346.000000	1.101408
3345.000000	1.100136
3344.000000	1.098813
3343.000000	1.097449
3342.000000	1.096082
3341.000000	1.094648
3340.000000	1.093080
3339.000000	1.091408
3338.000000	1.089650
3337.000000	1.087748
3336.000000	1.085697
3335.000000	1.083604
3334.000000	1.081540
3333.000000	1.079440
3332.000000	1.077267
3331.000000	1.075108
3330.000000	1.073035
3329.000000	1.070992
3328.000000	1.068924
3327.000000	1.066860
3326.000000	1.064799
3325.000000	1.062638
3324.000000	1.060330
3323.000000	1.057979
3322.000000	1.055682
3321.000000	1.053400
3320.000000	1.051074
3319.000000	1.048740
3318.000000	1.046441
3317.000000	1.044141
3316.000000	1.041818
3315.000000	1.039538
3314.000000	1.037338
3313.000000	1.035160
3312.000000	1.032975
3311.000000	1.030840
3310.000000	1.028774
3309.000000	1.026688
3308.000000	1.024517
3307.000000	1.022297
3306.000000	1.020041
3305.000000	1.017678
3304.000000	1.015191
3303.000000	1.012692
3302.000000	1.010269
3301.000000	1.007881
3300.000000	1.005479
3299.000000	1.003113
3298.000000	1.000824
3297.000000	0.998543
3296.000000	0.996191
3295.000000	0.993786
3294.000000	0.991369
3293.000000	0.988916
3292.000000	0.986401
3291.000000	0.983854
3290.000000	0.981297
3289.000000	0.978704
3288.000000	0.976080
3287.000000	0.973493
3286.000000	0.970959
3285.000000	0.968398
3284.000000	0.965755
3283.000000	0.963068
3282.000000	0.960376
3281.000000	0.957646
3280.000000	0.954865
3279.000000	0.952086
3278.000000	0.949345
3277.000000	0.946599
3276.000000	0.943814
3275.000000	0.941011
3274.000000	0.938203
3273.000000	0.935350
3272.000000	0.932439
3271.000000	0.929507
3270.000000	0.926561
3269.000000	0.923560
3268.000000	0.920506
3267.000000	0.917469
3266.000000	0.914467
3265.000000	0.911437
3264.000000	0.908347
3263.000000	0.905254
3262.000000	0.902202
3261.000000	0.899155
3260.000000	0.896080
3259.000000	0.893011
3258.000000	0.889970
3257.000000	0.886926
3256.000000	0.883854
3255.000000	0.880774
3254.000000	0.877687
3253.000000	0.874556
3252.000000	0.871387
3251.000000	0.868240
3250.000000	0.865135
3249.000000	0.862026
3248.000000	0.858879
3247.000000	0.855720
3246.000000	0.852553
3245.000000	0.849333
3244.000000	0.846055
3243.000000	0.842781
3242.000000	0.839544
3241.000000	0.836306
3240.000000	0.833030
3239.000000	0.829744
3238.000000	0.826471
3237.000000	0.823191
3236.000000	0.819894
3235.000000	0.816604
3234.000000	0.813316
3233.000000	0.809975
3232.000000	0.806558
3231.000000	0.803112
3230.000000	0.799680
3229.000000	0.796253
3228.000000	0.792811
3227.000000	0.789365
3226.000000	0.785918
3225.000000	0.782447
3224.000000	0.778955
3223.000000	0.775478
3222.000000	0.772024
3221.000000	0.768552
3220.000000	0.765040
3219.000000	0.761512
3218.000000	0.757986
3217.000000	0.754445
3216.000000	0.750879
3215.000000	0.747306
3214.000000	0.743731
3213.000000	0.740130
3212.000000	0.736497
3211.000000	0.732861
3210.000000	0.729231
3209.000000	0.725589
3208.000000	0.721932
3207.000000	0.718287
3206.000000	0.714661
3205.000000	0.711024
3204.000000	0.707365
3203.000000	0.703710
3202.000000	0.700072
3201.000000	0.696428
3200.000000	0.692759
3199.000000	0.689080
3198.000000	0.685403
3197.000000	0.681720
3196.000000	0.678027
3195.000000	0.674338
3194.000000	0.670656
3193.000000	0.666976
3192.000000	0.663308
3191.000000	0.659669
3190.000000	0.656052
3189.000000	0.652425
3188.000000	0.648783
3187.000000	0.645150
3186.000000	0.641536
3185.000000	0.637920
3184.000000	0.634294
3183.000000	0.630680
3182.000000	0.627091
3181.000000	0.623511
3180.000000	0.619931
3179.000000	0.616358
3178.000000	0.612792
3177.000000	0.609223
3176.000000	0.605654
3175.000000	0.602106
3174.000000	0.598584
3173.000000	0.595072
3172.000000	0.591562
3171.000000	0.588065
3170.000000	0.584588
3169.000000	0.581119
3168.000000	0.577651
3167.000000	0.574194
3166.000000	0.570758
3165.000000	0.567338
3164.000000	0.563931
3163.000000	0.560544
3162.000000	0.557177
3161.000000	0.553820
3160.000000	0.550477
3159.000000	0.547156
3158.000000	0.543859
3157.000000	0.540576
3156.000000	0.537316
3155.000000	0.534094
3154.000000	0.530899
3153.000000	0.527695
3152.000000	0.524459
3151.000000	0.521200
3150.000000	0.517943
3149.000000	0.514705
3148.000000	0.511502
3147.000000	0.508341
3146.000000	0.505212
3145.000000	0.502099
3144.000000	0.498999
3143.000000	0.495925
3142.000000	0.492886
3141.000000	0.489872
3140.000000	0.486871
3139.000000	0.483872
3138.000000	0.480871
3137.000000	0.477871
3136.000000	0.474887
3135.000000	0.471935
3134.000000	0.469015
3133.000000	0.466116
3132.000000	0.463238
3131.000000	0.460386
3130.000000	0.457558
3129.000000	0.454742
3128.000000	0.451933
3127.000000	0.449137
3126.000000	0.446365
3125.000000	0.443622
3124.000000	0.440919
3123.000000	0.438264
3122.000000	0.435649
3121.000000	0.433058
3120.000000	0.430473
3119.000000	0.427886
3118.000000	0.425298
3117.000000	0.422710
3116.000000	0.420124
3115.000000	0.417546
3114.000000	0.414983
3113.000000	0.412453
3112.000000	0.409974
3111.000000	0.407557
3110.000000	0.405181
3109.000000	0.402816
3108.000000	0.400448
3107.000000	0.398092
3106.000000	0.395770
3105.000000	0.393496
3104.000000	0.391266
3103.000000	0.389071
3102.000000	0.386898
3101.000000	0.384738
3100.000000	0.382588
3099.000000	0.380449
3098.000000	0.378328
3097.000000	0.376228
3096.000000	0.374150
3095.000000	0.372094
3094.000000	0.370062
3093.000000	0.368059
3092.000000	0.366087
3091.000000	0.364140
3090.000000	0.362211
3089.000000	0.360296
3088.000000	0.358403
3087.000000	0.356538
3086.000000	0.354702
3085.000000	0.352888
3084.000000	0.351093
3083.000000	0.349313
3082.000000	0.347549
3081.000000	0.345797
3080.000000	0.344053
3079.000000	0.342308
3078.000000	0.340558
3077.000000	0.338805
3076.000000	0.337061
3075.000000	0.335338
3074.000000	0.333641
3073.000000	0.331972
3072.000000	0.330333
3071.000000	0.328718
3070.000000	0.327118
3069.000000	0.325525
3068.000000	0.323923
3067.000000	0.322297
3066.000000	0.320632
3065.000000	0.318924
3064.000000	0.317181
3063.000000	0.315414
3062.000000	0.313634
3061.000000	0.311849
3060.000000	0.310065
3059.000000	0.308281
3058.000000	0.306494
3057.000000	0.304701
3056.000000	0.302903
3055.000000	0.301105
3054.000000	0.299318
3053.000000	0.297555
3052.000000	0.295821
3051.000000	0.294110
3050.000000	0.292412
3049.000000	0.290726
3048.000000	0.289055
3047.000000	0.287408
3046.000000	0.285789
3045.000000	0.284200
3044.000000	0.282640
3043.000000	0.281102
3042.000000	0.279586
3041.000000	0.278092
3040.000000	0.276623
3039.000000	0.275179
3038.000000	0.273765
3037.000000	0.272387
3036.000000	0.271049
3035.000000	0.269746
3034.000000	0.268468
3033.000000	0.267204
3032.000000	0.265942
3031.000000	0.264678
3030.000000	0.263426
3029.000000	0.262205
3028.000000	0.261024
3027.000000	0.259879
3026.000000	0.258768
3025.000000	0.257697
3024.000000	0.256667
3023.000000	0.255673
3022.000000	0.254715
3021.000000	0.253805
3020.000000	0.252956
3019.000000	0.252171
3018.000000	0.251447
3017.000000	0.250782
3016.000000	0.250176
3015.000000	0.249622
3014.000000	0.249117
3013.000000	0.248653
3012.000000	0.248224
3011.000000	0.247823
3010.000000	0.247456
3009.000000	0.247139
3008.000000	0.246887
3007.000000	0.246700
3006.000000	0.246575
3005.000000	0.246513
3004.000000	0.246518
3003.000000	0.246594
3002.000000	0.246747
3001.000000	0.246988
3000.000000	0.247330
2999.000000	0.247777
2998.000000	0.248336
2997.000000	0.249019
2996.000000	0.249835
2995.000000	0.250793
2994.000000	0.251898
2993.000000	0.253156
2992.000000	0.254569
2991.000000	0.256138
2990.000000	0.257867
2989.000000	0.259757
2988.000000	0.261800
2987.000000	0.263984
2986.000000	0.266303
2985.000000	0.268757
2984.000000	0.271342
2983.000000	0.274043
2982.000000	0.276846
2981.000000	0.279745
2980.000000	0.282736
2979.000000	0.285817
2978.000000	0.288987
2977.000000	0.292251
2976.000000	0.295614
2975.000000	0.299065
2974.000000	0.302587
2973.000000	0.306164
2972.000000	0.309782
2971.000000	0.313433
2970.000000	0.317111
2969.000000	0.320805
2968.000000	0.324499
2967.000000	0.328175
2966.000000	0.331821
2965.000000	0.335436
2964.000000	0.339022
2963.000000	0.342579
2962.000000	0.346111
2961.000000	0.349623
2960.000000	0.353129
2959.000000	0.356643
2958.000000	0.360180
2957.000000	0.363752
2956.000000	0.367375
2955.000000	0.371063
2954.000000	0.374833
2953.000000	0.378707
2952.000000	0.382709
2951.000000	0.386858
2950.000000	0.391167
2949.000000	0.395631
2948.000000	0.400234
2947.000000	0.404943
2946.000000	0.409712
2945.000000	0.414490
2944.000000	0.419236
2943.000000	0.423911
2942.000000	0.428475
2941.000000	0.432884
2940.000000	0.437103
2939.000000	0.441106
2938.000000	0.444866
2937.000000	0.448360
2936.000000	0.451569
2935.000000	0.454475
2934.000000	0.457055
2933.000000	0.459288
2932.000000	0.461166
2931.000000	0.462676
2930.000000	0.463787
2929.000000	0.464452
2928.000000	0.464631
2927.000000	0.464290
2926.000000	0.463390
2925.000000	0.461891
2924.000000	0.459773
2923.000000	0.457041
2922.000000	0.453715
2921.000000	0.449837
2920.000000	0.445465
2919.000000	0.440664
2918.000000	0.435496
2917.000000	0.430043
2916.000000	0.424423
2915.000000	0.418786
2914.000000	0.413273
2913.000000	0.407997
2912.000000	0.403032
2911.000000	0.398416
2910.000000	0.394150
2909.000000	0.390210
2908.000000	0.386565
2907.000000	0.383176
2906.000000	0.380005
2905.000000	0.377017
2904.000000	0.374178
2903.000000	0.371458
2902.000000	0.368833
2901.000000	0.366285
2900.000000	0.363797
2899.000000	0.361349
2898.000000	0.358918
2897.000000	0.356493
2896.000000	0.354069
2895.000000	0.351646
2894.000000	0.349222
2893.000000	0.346796
2892.000000	0.344364
2891.000000	0.341916
2890.000000	0.339438
2889.000000	0.336923
2888.000000	0.334367
2887.000000	0.331771
2886.000000	0.329145
2885.000000	0.326498
2884.000000	0.323839
2883.000000	0.321163
2882.000000	0.318462
2881.000000	0.315732
2880.000000	0.312976
2879.000000	0.310195
2878.000000	0.307388
2877.000000	0.304552
2876.000000	0.301679
2875.000000	0.298758
2874.000000	0.295780
2873.000000	0.292746
2872.000000	0.289657
2871.000000	0.286525
2870.000000	0.283380
2869.000000	0.280279
2868.000000	0.277289
2867.000000	0.274476
2866.000000	0.271896
2865.000000	0.269603
2864.000000	0.267635
2863.000000	0.266009
2862.000000	0.264727
2861.000000	0.263771
2860.000000	0.263091
2859.000000	0.262598
2858.000000	0.262171
2857.000000	0.261669
2856.000000	0.260938
2855.000000	0.259822
2854.000000	0.258183
2853.000000	0.255907
2852.000000	0.252907
2851.000000	0.249140
2850.000000	0.244646
2849.000000	0.239568
2848.000000	0.234119
2847.000000	0.228536
2846.000000	0.223028
2845.000000	0.217746
2844.000000	0.212767
2843.000000	0.208106
2842.000000	0.203752
2841.000000	0.199682
2840.000000	0.195864
2839.000000	0.192255
2838.000000	0.188826
2837.000000	0.185558
2836.000000	0.182430
2835.000000	0.179422
2834.000000	0.176523
2833.000000	0.173733
2832.000000	0.171051
2831.000000	0.168469
2830.000000	0.165987
2829.000000	0.163612
2828.000000	0.161342
2827.000000	0.159160
2826.000000	0.157058
2825.000000	0.155036
2824.000000	0.153089
2823.000000	0.151207
2822.000000	0.149385
2821.000000	0.147633
2820.000000	0.145946
2819.000000	0.144314
2818.000000	0.142732
2817.000000	0.141205
2816.000000	0.139731
2815.000000	0.138299
2814.000000	0.136905
2813.000000	0.135551
2812.000000	0.134234
2811.000000	0.132948
2810.000000	0.131699
2809.000000	0.130495
2808.000000	0.129335
2807.000000	0.128202
2806.000000	0.127091
2805.000000	0.126005
2804.000000	0.124946
2803.000000	0.123906
2802.000000	0.122887
2801.000000	0.121900
2800.000000	0.120944
2799.000000	0.120011
2798.000000	0.119098
2797.000000	0.118213
2796.000000	0.117350
2795.000000	0.116499
2794.000000	0.115659
2793.000000	0.114845
2792.000000	0.114059
2791.000000	0.113293
2790.000000	0.112550
2789.000000	0.111838
2788.000000	0.111156
2787.000000	0.110488
2786.000000	0.109829
2785.000000	0.109190
2784.000000	0.108570
2783.000000	0.107965
2782.000000	0.107377
2781.000000	0.106816
2780.000000	0.106284
2779.000000	0.105766
2778.000000	0.105260
2777.000000	0.104775
2776.000000	0.104315
2775.000000	0.103876
2774.000000	0.103459
2773.000000	0.103074
2772.000000	0.102714
2771.000000	0.102356
2770.000000	0.101987
2769.000000	0.101605
2768.000000	0.101200
2767.000000	0.100756
2766.000000	0.100276
2765.000000	0.099777
2764.000000	0.099274
2763.000000	0.098765
2762.000000	0.098257
2761.000000	0.097763
2760.000000	0.097289
2759.000000	0.096826
2758.000000	0.096379
2757.000000	0.095959
2756.000000	0.095563
2755.000000	0.095178
2754.000000	0.094800
2753.000000	0.094435
2752.000000	0.094081
2751.000000	0.093729
2750.000000	0.093379
2749.000000	0.093044
2748.000000	0.092728
2747.000000	0.092416
2746.000000	0.092105
2745.000000	0.091799
2744.000000	0.091498
2743.000000	0.091190
2742.000000	0.090876
2741.000000	0.090567
2740.000000	0.090263
2739.000000	0.089951
2738.000000	0.089632
2737.000000	0.089317
2736.000000	0.089003
2735.000000	0.088679
2734.000000	0.088342
2733.000000	0.088004
2732.000000	0.087670
2731.000000	0.087329
2730.000000	0.086983
2729.000000	0.086638
2728.000000	0.086294
2727.000000	0.085938
2726.000000	0.085569
2725.000000	0.085200
2724.000000	0.084831
2723.000000	0.084453
2722.000000	0.084067
2721.000000	0.083685
2720.000000	0.083301
2719.000000	0.082903
2718.000000	0.082488
2717.000000	0.082069
2716.000000	0.081649
2715.000000	0.081223
2714.000000	0.080788
2713.000000	0.080354
2712.000000	0.079920
2711.000000	0.079475
2710.000000	0.079020
2709.000000	0.078567
2708.000000	0.078115
2707.000000	0.077656
2706.000000	0.077196
2705.000000	0.076747
2704.000000	0.076310
2703.000000	0.075872
2702.000000	0.075432
2701.000000	0.075003
2700.000000	0.074584
2699.000000	0.074166
2698.000000	0.073751
2697.000000	0.073350
2696.000000	0.072963
2695.000000	0.072576
2694.000000	0.072188
2693.000000	0.071807
2692.000000	0.071434
2691.000000	0.071058
2690.000000	0.070682
2689.000000	0.070318
2688.000000	0.069968
2687.000000	0.069619
2686.000000	0.069268
2685.000000	0.068925
2684.000000	0.068585
2683.000000	0.068238
2682.000000	0.067886
2681.000000	0.067547
2680.000000	0.067224
2679.000000	0.066903
2678.000000	0.066581
2677.000000	0.066263
2676.000000	0.065944
2675.000000	0.065612
2674.000000	0.065270
2673.000000	0.064934
2672.000000	0.064605
2671.000000	0.064276
2670.000000	0.063948
2669.000000	0.063632
2668.000000	0.063322
2667.000000	0.063001
2666.000000	0.062666
2665.000000	0.062334
2664.000000	0.062008
2663.000000	0.061682
2662.000000	0.061356
2661.000000	0.061043
2660.000000	0.060739
2659.000000	0.060431
2658.000000	0.060113
2657.000000	0.059794
2656.000000	0.059473
2655.000000	0.059143
2654.000000	0.058812
2653.000000	0.058495
2652.000000	0.058190
2651.000000	0.057877
2650.000000	0.057553
2649.000000	0.057229
2648.000000	0.056903
2647.000000	0.056562
2646.000000	0.056210
2645.000000	0.055866
2644.000000	0.055533
2643.000000	0.055197
2642.000000	0.054853
2641.000000	0.054509
2640.000000	0.054163
2639.000000	0.053801
2638.000000	0.053428
2637.000000	0.053060
2636.000000	0.052697
2635.000000	0.052327
2634.000000	0.051951
2633.000000	0.051583
2632.000000	0.051220
2631.000000	0.050849
2630.000000	0.050468
2629.000000	0.050093
2628.000000	0.049726
2627.000000	0.049355
2626.000000	0.048983
2625.000000	0.048624
2624.000000	0.048275
2623.000000	0.047921
2622.000000	0.047566
2621.000000	0.047223
2620.000000	0.046893
2619.000000	0.046561
2618.000000	0.046227
2617.000000	0.045904
2616.000000	0.045593
2615.000000	0.045278
2614.000000	0.044957
2613.000000	0.044646
2612.000000	0.044347
2611.000000	0.044046
2610.000000	0.043743
2609.000000	0.043449
2608.000000	0.043166
2607.000000	0.042881
2606.000000	0.042596
2605.000000	0.042322
2604.000000	0.042059
2603.000000	0.041791
2602.000000	0.041521
2601.000000	0.041261
2600.000000	0.041009
2599.000000	0.040749
2598.000000	0.040483
2597.000000	0.040231
2596.000000	0.039993
2595.000000	0.039756
2594.000000	0.039517
2593.000000	0.039289
2592.000000	0.039066
2591.000000	0.038833
2590.000000	0.038590
2589.000000	0.038354
2588.000000	0.038128
2587.000000	0.037904
2586.000000	0.037684
2585.000000	0.037479
2584.000000	0.037281
2583.000000	0.037067
2582.000000	0.036836
2581.000000	0.036607
2580.000000	0.036384
2579.000000	0.036161
2578.000000	0.035943
2577.000000	0.035744
2576.000000	0.035559
2575.000000	0.035367
2574.000000	0.035159
2573.000000	0.034946
2572.000000	0.034726
2571.000000	0.034494
2570.000000	0.034262
2569.000000	0.034052
2568.000000	0.033860
2567.000000	0.033664
2566.000000	0.033457
2565.000000	0.033251
2564.000000	0.033042
2563.000000	0.032816
2562.000000	0.032582
2561.000000	0.032362
2560.000000	0.032159
2559.000000	0.031959
2558.000000	0.031756
2557.000000	0.031557
2556.000000	0.031354
2555.000000	0.031133
2554.000000	0.030903
2553.000000	0.030686
2552.000000	0.030486
2551.000000	0.030289
2550.000000	0.030094
2549.000000	0.029911
2548.000000	0.029732
2547.000000	0.029537
2546.000000	0.029326
2545.000000	0.029122
2544.000000	0.028929
2543.000000	0.028735
2542.000000	0.028541
2541.000000	0.028358
2540.000000	0.028179
2539.000000	0.027986
2538.000000	0.027780
2537.000000	0.027579
2536.000000	0.027383
2535.000000	0.027180
2534.000000	0.026975
2533.000000	0.026785
2532.000000	0.026605
2531.000000	0.026415
2530.000000	0.026208
2529.000000	0.026004
2528.000000	0.025807
2527.000000	0.025607
2526.000000	0.025411
2525.000000	0.025231
2524.000000	0.025065
2523.000000	0.024893
2522.000000	0.024713
2521.000000	0.024537
2520.000000	0.024365
2519.000000	0.024185
2518.000000	0.024006
2517.000000	0.023847
2516.000000	0.023706
2515.000000	0.023561
2514.000000	0.023410
2513.000000	0.023267
2512.000000	0.023131
2511.000000	0.022984
2510.000000	0.022832
2509.000000	0.022692
2508.000000	0.022566
2507.000000	0.022438
2506.000000	0.022306
2505.000000	0.022183
2504.000000	0.022061
2503.000000	0.021924
2502.000000	0.021774
2501.000000	0.021629
2500.000000	0.021488
2499.000000	0.021329
2498.000000	0.021153
2497.000000	0.020977
2496.000000	0.020801
2495.000000	0.020610
2494.000000	0.020406
2493.000000	0.020210
2492.000000	0.020019
2491.000000	0.019819
2490.000000	0.019613
2489.000000	0.019423
2488.000000	0.019248
2487.000000	0.019072
2486.000000	0.018894
2485.000000	0.018727
2484.000000	0.018567
2483.000000	0.018392
2482.000000	0.018205
2481.000000	0.018027
2480.000000	0.017859
2479.000000	0.017684
2478.000000	0.017503
2477.000000	0.017336
2476.000000	0.017182
2475.000000	0.017024
2474.000000	0.016856
2473.000000	0.016690
2472.000000	0.016525
2471.000000	0.016348
2470.000000	0.016164
2469.000000	0.015997
2468.000000	0.015843
2467.000000	0.015686
2466.000000	0.015527
2465.000000	0.015379
2464.000000	0.015237
2463.000000	0.015077
2462.000000	0.014901
2461.000000	0.014733
2460.000000	0.014576
2459.000000	0.014418
2458.000000	0.014260
2457.000000	0.014118
2456.000000	0.013982
2455.000000	0.013827
2454.000000	0.013650
2453.000000	0.013474
2452.000000	0.013303
2451.000000	0.013126
2450.000000	0.012949
2449.000000	0.012793
2448.000000	0.012650
2447.000000	0.012497
2446.000000	0.012330
2445.000000	0.012166
2444.000000	0.012005
2443.000000	0.011833
2442.000000	0.011656
2441.000000	0.011496
2440.000000	0.011350
2439.000000	0.011197
2438.000000	0.011035
2437.000000	0.010877
2436.000000	0.010717
2435.000000	0.010537
2434.000000	0.010348
2433.000000	0.010176
2432.000000	0.010021
2431.000000	0.009860
2430.000000	0.009693
2429.000000	0.009534
2428.000000	0.009378
2427.000000	0.009205
2426.000000	0.009019
2425.000000	0.008847
2424.000000	0.008693
2423.000000	0.008539
2422.000000	0.008385
2421.000000	0.008242
2420.000000	0.008100
2419.000000	0.007938
2418.000000	0.007762
2417.000000	0.007600
2416.000000	0.007457
2415.000000	0.007316
2414.000000	0.007179
2413.000000	0.007060
2412.000000	0.006949
2411.000000	0.006819
2410.000000	0.006669
2409.000000	0.006525
2408.000000	0.006397
2407.000000	0.006273
2406.000000	0.006159
2405.000000	0.006067
2404.000000	0.005981
2403.000000	0.005870
2402.000000	0.005732
2401.000000	0.005588
2400.000000	0.005443
2399.000000	0.005283
2398.000000	0.005124
2397.000000	0.004991
2396.000000	0.004878
2395.000000	0.004753
2394.000000	0.004608
2393.000000	0.004457
2392.000000	0.004306
2391.000000	0.004143
2390.000000	0.003985
2389.000000	0.003858
2388.000000	0.003757
2387.000000	0.003655
2386.000000	0.003542
2385.000000	0.003428
2384.000000	0.003305
2383.000000	0.003157
2382.000000	0.002999
2381.000000	0.002867
2380.000000	0.002767
2379.000000	0.002675
2378.000000	0.002586
2377.000000	0.002510
2376.000000	0.002435
2375.000000	0.002333
2374.000000	0.002214
2373.000000	0.002111
2372.000000	0.002027
2371.000000	0.001938
2370.000000	0.001845
2369.000000	0.001773
2368.000000	0.001709
2367.000000	0.001617
2366.000000	0.001505
2365.000000	0.001410
2364.000000	0.001335
2363.000000	0.001254
2362.000000	0.001183
2361.000000	0.001148
2360.000000	0.001129
2359.000000	0.001092
2358.000000	0.001043
2357.000000	0.001017
2356.000000	0.000995
2355.000000	0.000941
2354.000000	0.000854
2353.000000	0.000741
2352.000000	0.000599
2351.000000	0.000433
2350.000000	0.000331
2349.000000	0.000366
2348.000000	0.000496
2347.000000	0.000593
2346.000000	0.000552
2345.000000	0.000427
2344.000000	0.000316
2343.000000	0.000267
2342.000000	0.000264
2341.000000	0.000268
2340.000000	0.000270
2339.000000	0.000247
2338.000000	0.000220
2337.000000	0.000213
2336.000000	0.000229
2335.000000	0.000237
2334.000000	0.000233
2333.000000	0.000222
2332.000000	0.000202
2331.000000	0.000142
2330.000000	0.000079
2329.000000	0.000066
2328.000000	0.000117
2327.000000	0.000201
2326.000000	0.000271
2325.000000	0.000330
2324.000000	0.000349
2323.000000	0.000322
2322.000000	0.000282
2321.000000	0.000270
2320.000000	0.000296
2319.000000	0.000328
2318.000000	0.000374
2317.000000	0.000446
2316.000000	0.000524
2315.000000	0.000555
2314.000000	0.000541
2313.000000	0.000523
2312.000000	0.000525
2311.000000	0.000536
2310.000000	0.000559
2309.000000	0.000612
2308.000000	0.000687
2307.000000	0.000755
2306.000000	0.000815
2305.000000	0.000889
2304.000000	0.000976
2303.000000	0.001051
2302.000000	0.001117
2301.000000	0.001197
2300.000000	0.001289
2299.000000	0.001367
2298.000000	0.001429
2297.000000	0.001498
2296.000000	0.001573
2295.000000	0.001632
2294.000000	0.001676
2293.000000	0.001734
2292.000000	0.001805
2291.000000	0.001864
2290.000000	0.001908
2289.000000	0.001958
2288.000000	0.002011
2287.000000	0.002046
2286.000000	0.002068
2285.000000	0.002103
2284.000000	0.002152
2283.000000	0.002190
2282.000000	0.002216
2281.000000	0.002255
2280.000000	0.002304
2279.000000	0.002339
2278.000000	0.002362
2277.000000	0.002401
2276.000000	0.002456
2275.000000	0.002501
2274.000000	0.002538
2273.000000	0.002587
2272.000000	0.002646
2271.000000	0.002691
2270.000000	0.002729
2269.000000	0.002785
2268.000000	0.002857
2267.000000	0.002915
2266.000000	0.002961
2265.000000	0.003018
2264.000000	0.003087
2263.000000	0.003143
2262.000000	0.003189
2261.000000	0.003254
2260.000000	0.003334
2259.000000	0.003404
2258.000000	0.003466
2257.000000	0.003541
2256.000000	0.003624
2255.000000	0.003690
2254.000000	0.003743
2253.000000	0.003811
2252.000000	0.003893
2251.000000	0.003963
2250.000000	0.004024
2249.000000	0.004102
2248.000000	0.004192
2247.000000	0.004266
2246.000000	0.004326
2245.000000	0.004404
2244.000000	0.004498
2243.000000	0.004581
2242.000000	0.004651
2241.000000	0.004734
2240.000000	0.004827
2239.000000	0.004905
2238.000000	0.004971
2237.000000	0.005052
2236.000000	0.005147
2235.000000	0.005229
2234.000000	0.005301
2233.000000	0.005385
2232.000000	0.005472
2231.000000	0.005531
2230.000000	0.005561
2229.000000	0.005594
2228.000000	0.005633
2227.000000	0.005653
2226.000000	0.005659
2225.000000	0.005677
2224.000000	0.005702
2223.000000	0.005704
2222.000000	0.005689
2221.000000	0.005689
2220.000000	0.005710
2219.000000	0.005727
2218.000000	0.005742
2217.000000	0.005780
2216.000000	0.005833
2215.000000	0.005868
2214.000000	0.005885
2213.000000	0.005914
2212.000000	0.005958
2211.000000	0.005994
2210.000000	0.006028
2209.000000	0.006092
2208.000000	0.006181
2207.000000	0.006258
2206.000000	0.006314
2205.000000	0.006370
2204.000000	0.006427
2203.000000	0.006465
2202.000000	0.006501
2201.000000	0.006569
2200.000000	0.006668
2199.000000	0.006761
2198.000000	0.006842
2197.000000	0.006930
2196.000000	0.007017
2195.000000	0.007077
2194.000000	0.007121
2193.000000	0.007193
2192.000000	0.007299
2191.000000	0.007410
2190.000000	0.007518
2189.000000	0.007639
2188.000000	0.007763
2187.000000	0.007857
2186.000000	0.007930
2185.000000	0.008022
2184.000000	0.008140
2183.000000	0.008260
2182.000000	0.008384
2181.000000	0.008532
2180.000000	0.008688
2179.000000	0.008814
2178.000000	0.008911
2177.000000	0.009017
2176.000000	0.009140
2175.000000	0.009259
2174.000000	0.009381
2173.000000	0.009529
2172.000000	0.009695
2171.000000	0.009838
2170.000000	0.009955
2169.000000	0.010072
2168.000000	0.010191
2167.000000	0.010289
2166.000000	0.010379
2165.000000	0.010497
2164.000000	0.010638
2163.000000	0.010761
2162.000000	0.010858
2161.000000	0.010955
2160.000000	0.011049
2159.000000	0.011117
2158.000000	0.011168
2157.000000	0.011240
2156.000000	0.011334
2155.000000	0.011414
2154.000000	0.011473
2153.000000	0.011536
2152.000000	0.011599
2151.000000	0.011634
2150.000000	0.011651
2149.000000	0.011688
2148.000000	0.011747
2147.000000	0.011795
2146.000000	0.011829
2145.000000	0.011876
2144.000000	0.011926
2143.000000	0.011947
2142.000000	0.011944
2141.000000	0.011955
2140.000000	0.011986
2139.000000	0.012009
2138.000000	0.012025
2137.000000	0.012064
2136.000000	0.012114
2135.000000	0.012136
2134.000000	0.012131
2133.000000	0.012138
2132.000000	0.012161
2131.000000	0.012169
2130.000000	0.012163
2129.000000	0.012174
2128.000000	0.012197
2127.000000	0.012199
2126.000000	0.012184
2125.000000	0.012189
2124.000000	0.012211
2123.000000	0.012214
2122.000000	0.012202
2121.000000	0.012210
2120.000000	0.012231
2119.000000	0.012226
2118.000000	0.012196
2117.000000	0.012184
2116.000000	0.012196
2115.000000	0.012200
2114.000000	0.012194
2113.000000	0.012204
2112.000000	0.012220
2111.000000	0.012207
2110.000000	0.012173
2109.000000	0.012160
2108.000000	0.012169
2107.000000	0.012166
2106.000000	0.012150
2105.000000	0.012154
2104.000000	0.012172
2103.000000	0.012164
2102.000000	0.012133
2101.000000	0.012118
2100.000000	0.012122
2099.000000	0.012114
2098.000000	0.012095
2097.000000	0.012101
2096.000000	0.012127
2095.000000	0.012125
2094.000000	0.012087
2093.000000	0.012052
2092.000000	0.012037
2091.000000	0.012025
2090.000000	0.012021
2089.000000	0.012051
2088.000000	0.012097
2087.000000	0.012115
2086.000000	0.012107
2085.000000	0.012109
2084.000000	0.012122
2083.000000	0.012116
2082.000000	0.012096
2081.000000	0.012104
2080.000000	0.012140
2079.000000	0.012165
2078.000000	0.012174
2077.000000	0.012196
2076.000000	0.012229
2075.000000	0.012240
2074.000000	0.012235
2073.000000	0.012253
2072.000000	0.012293
2071.000000	0.012314
2070.000000	0.012310
2069.000000	0.012308
2068.000000	0.012312
2067.000000	0.012308
2066.000000	0.012323
2065.000000	0.012387
2064.000000	0.012466
2063.000000	0.012497
2062.000000	0.012487
2061.000000	0.012494
2060.000000	0.012522
2059.000000	0.012527
2058.000000	0.012504
2057.000000	0.012496
2056.000000	0.012509
2055.000000	0.012505
2054.000000	0.012484
2053.000000	0.012480
2052.000000	0.012487
2051.000000	0.012461
2050.000000	0.012404
2049.000000	0.012359
2048.000000	0.012328
2047.000000	0.012279
2046.000000	0.012209
2045.000000	0.012149
2044.000000	0.012097
2043.000000	0.012024
2042.000000	0.011946
2041.000000	0.011898
2040.000000	0.011858
2039.000000	0.011776
2038.000000	0.011660
2037.000000	0.011563
2036.000000	0.011486
2035.000000	0.011378
2034.000000	0.011235
2033.000000	0.011098
2032.000000	0.010970
2031.000000	0.010815
2030.000000	0.010644
2029.000000	0.010504
2028.000000	0.010385
2027.000000	0.010231
2026.000000	0.010038
2025.000000	0.009852
2024.000000	0.009682
2023.000000	0.009488
2022.000000	0.009266
2021.000000	0.009061
2020.000000	0.008893
2019.000000	0.008754
2018.000000	0.008658
2017.000000	0.008608
2016.000000	0.008538
2015.000000	0.008379
2014.000000	0.008164
2013.000000	0.007985
2012.000000	0.007859
2011.000000	0.007733
2010.000000	0.007596
2009.000000	0.007486
2008.000000	0.007397
2007.000000	0.007280
2006.000000	0.007139
2005.000000	0.007026
2004.000000	0.006944
2003.000000	0.006849
2002.000000	0.006743
2001.000000	0.006666
2000.000000	0.006610
1999.000000	0.006528
1998.000000	0.006413
1997.000000	0.006301
1996.000000	0.006196
1995.000000	0.006102
1994.000000	0.006079
1993.000000	0.006171
1992.000000	0.006283
1991.000000	0.006266
1990.000000	0.006122
1989.000000	0.005994
1988.000000	0.005942
1987.000000	0.005906
1986.000000	0.005847
1985.000000	0.005806
1984.000000	0.005796
1983.000000	0.005769
1982.000000	0.005724
1981.000000	0.005709
1980.000000	0.005725
1979.000000	0.005722
1978.000000	0.005698
1977.000000	0.005703
1976.000000	0.005733
1975.000000	0.005729
1974.000000	0.005692
1973.000000	0.005673
1972.000000	0.005668
1971.000000	0.005627
1970.000000	0.005570
1969.000000	0.005586
1968.000000	0.005689
1967.000000	0.005786
1966.000000	0.005805
1965.000000	0.005769
1964.000000	0.005717
1963.000000	0.005655
1962.000000	0.005612
1961.000000	0.005631
1960.000000	0.005685
1959.000000	0.005698
1958.000000	0.005661
1957.000000	0.005641
1956.000000	0.005659
1955.000000	0.005666
1954.000000	0.005653
1953.000000	0.005669
1952.000000	0.005711
1951.000000	0.005718
1950.000000	0.005686
1949.000000	0.005665
1948.000000	0.005651
1947.000000	0.005603
1946.000000	0.005568
1945.000000	0.005667
1944.000000	0.005909
1943.000000	0.006151
1942.000000	0.006244
1941.000000	0.006166
1940.000000	0.005994
1939.000000	0.005804
1938.000000	0.005654
1937.000000	0.005590
1936.000000	0.005589
1935.000000	0.005593
1934.000000	0.005597
1933.000000	0.005647
1932.000000	0.005721
1931.000000	0.005748
1930.000000	0.005730
1929.000000	0.005736
1928.000000	0.005766
1927.000000	0.005758
1926.000000	0.005739
1925.000000	0.005828
1924.000000	0.006054
1923.000000	0.006307
1922.000000	0.006513
1921.000000	0.006760
1920.000000	0.007143
1919.000000	0.007556
1918.000000	0.007799
1917.000000	0.007797
1916.000000	0.007630
1915.000000	0.007433
1914.000000	0.007317
1913.000000	0.007326
1912.000000	0.007413
1911.000000	0.007510
1910.000000	0.007618
1909.000000	0.007763
1908.000000	0.007899
1907.000000	0.007948
1906.000000	0.007931
1905.000000	0.007935
1904.000000	0.007969
1903.000000	0.007973
1902.000000	0.007953
1901.000000	0.007966
1900.000000	0.008004
1899.000000	0.008007
1898.000000	0.008006
1897.000000	0.008101
1896.000000	0.008286
1895.000000	0.008434
1894.000000	0.008499
1893.000000	0.008604
1892.000000	0.008851
1891.000000	0.009186
1890.000000	0.009488
1889.000000	0.009654
1888.000000	0.009635
1887.000000	0.009500
1886.000000	0.009418
1885.000000	0.009499
1884.000000	0.009676
1883.000000	0.009816
1882.000000	0.009915
1881.000000	0.010059
1880.000000	0.010265
1879.000000	0.010463
1878.000000	0.010642
1877.000000	0.010862
1876.000000	0.011107
1875.000000	0.011276
1874.000000	0.011379
1873.000000	0.011600
1872.000000	0.012092
1871.000000	0.012807
1870.000000	0.013542
1869.000000	0.014110
1868.000000	0.014360
1867.000000	0.014247
1866.000000	0.013966
1865.000000	0.013779
1864.000000	0.013743
1863.000000	0.013774
1862.000000	0.013859
1861.000000	0.014060
1860.000000	0.014343
1859.000000	0.014603
1858.000000	0.014831
1857.000000	0.015095
1856.000000	0.015380
1855.000000	0.015610
1854.000000	0.015808
1853.000000	0.016050
1852.000000	0.016327
1851.000000	0.016582
1850.000000	0.016837
1849.000000	0.017194
1848.000000	0.017722
1847.000000	0.018486
1846.000000	0.019544
1845.000000	0.020690
1844.000000	0.021464
1843.000000	0.021653
1842.000000	0.021517
1841.000000	0.021456
1840.000000	0.021638
1839.000000	0.021979
1838.000000	0.022417
1837.000000	0.022979
1836.000000	0.023590
1835.000000	0.024129
1834.000000	0.024711
1833.000000	0.025628
1832.000000	0.026932
1831.000000	0.028261
1830.000000	0.029232
1829.000000	0.029798
1828.000000	0.030212
1827.000000	0.030755
1826.000000	0.031493
1825.000000	0.032259
1824.000000	0.032833
1823.000000	0.033180
1822.000000	0.033523
1821.000000	0.034085
1820.000000	0.034853
1819.000000	0.035683
1818.000000	0.036551
1817.000000	0.037503
1816.000000	0.038450
1815.000000	0.039282
1814.000000	0.040123
1813.000000	0.041205
1812.000000	0.042510
1811.000000	0.043755
1810.000000	0.044798
1809.000000	0.045777
1808.000000	0.046804
1807.000000	0.047826
1806.000000	0.048846
1805.000000	0.050009
1804.000000	0.051413
1803.000000	0.053050
1802.000000	0.054870
1801.000000	0.056725
1800.000000	0.058288
1799.000000	0.059363
1798.000000	0.060210
1797.000000	0.061283
1796.000000	0.062788
1795.000000	0.064723
1794.000000	0.067078
1793.000000	0.069717
1792.000000	0.072234
1791.000000	0.074163
1790.000000	0.075506
1789.000000	0.076758
1788.000000	0.078353
1787.000000	0.080401
1786.000000	0.082850
1785.000000	0.085568
1784.000000	0.088298
1783.000000	0.090909
1782.000000	0.093577
1781.000000	0.096557
1780.000000	0.099786
1779.000000	0.103017
1778.000000	0.106256
1777.000000	0.109646
1776.000000	0.113223
1775.000000	0.117208
1774.000000	0.122126
1773.000000	0.128164
1772.000000	0.134627
1771.000000	0.140472
1770.000000	0.145630
1769.000000	0.151012
1768.000000	0.157112
1767.000000	0.163478
1766.000000	0.169684
1765.000000	0.176097
1764.000000	0.183378
1763.000000	0.191681
1762.000000	0.200528
1761.000000	0.209244
1760.000000	0.217439
1759.000000	0.225335
1758.000000	0.233566
1757.000000	0.242308
1756.000000	0.250755
1755.000000	0.258029
1754.000000	0.264498
1753.000000	0.271452
1752.000000	0.279550
1751.000000	0.288092
1750.000000	0.296007
1749.000000	0.302863
1748.000000	0.308618
1747.000000	0.313377
1746.000000	0.317582
1745.000000	0.321755
1744.000000	0.325957
1743.000000	0.329866
1742.000000	0.333383
1741.000000	0.336609
1740.000000	0.339189
1739.000000	0.340542
1738.000000	0.340713
1737.000000	0.340524
1736.000000	0.340864
1735.000000	0.341494
1734.000000	0.341678
1733.000000	0.341441
1732.000000	0.340883
1731.000000	0.339799
1730.000000	0.338286
1729.000000	0.336683
1728.000000	0.335084
1727.000000	0.333440
1726.000000	0.331922
1725.000000	0.330751
1724.000000	0.329814
1723.000000	0.328826
1722.000000	0.327821
1721.000000	0.327011
1720.000000	0.326369
1719.000000	0.325661
1718.000000	0.325184
1717.000000	0.325521
1716.000000	0.326249
1715.000000	0.326364
1714.000000	0.325649
1713.000000	0.324725
1712.000000	0.324096
1711.000000	0.323817
1710.000000	0.323983
1709.000000	0.324875
1708.000000	0.326472
1707.000000	0.328355
1706.000000	0.330256
1705.000000	0.332113
1704.000000	0.333838
1703.000000	0.336034
1702.000000	0.340117
1701.000000	0.345601
1700.000000	0.350038
1699.000000	0.352283
1698.000000	0.353766
1697.000000	0.357057
1696.000000	0.362868
1695.000000	0.369222
1694.000000	0.374514
1693.000000	0.378899
1692.000000	0.383185
1691.000000	0.387987
1690.000000	0.393288
1689.000000	0.398444
1688.000000	0.402870
1687.000000	0.407295
1686.000000	0.413784
1685.000000	0.423423
1684.000000	0.434438
1683.000000	0.443274
1682.000000	0.449186
1681.000000	0.454329
1680.000000	0.460239
1679.000000	0.466894
1678.000000	0.474145
1677.000000	0.482628
1676.000000	0.492442
1675.000000	0.502207
1674.000000	0.510698
1673.000000	0.518366
1672.000000	0.526402
1671.000000	0.535422
1670.000000	0.545301
1669.000000	0.555321
1668.000000	0.564433
1667.000000	0.572142
1666.000000	0.579224
1665.000000	0.587107
1664.000000	0.596272
1663.000000	0.605740
1662.000000	0.614336
1661.000000	0.621885
1660.000000	0.628778
1659.000000	0.635117
1658.000000	0.640794
1657.000000	0.645787
1656.000000	0.650675
1655.000000	0.656680
1654.000000	0.664579
1653.000000	0.673300
1652.000000	0.680464
1651.000000	0.685213
1650.000000	0.688283
1649.000000	0.691136
1648.000000	0.695153
1647.000000	0.700051
1646.000000	0.704324
1645.000000	0.707671
1644.000000	0.710659
1643.000000	0.713274
1642.000000	0.715718
1641.000000	0.718668
1640.000000	0.722144
1639.000000	0.725466
1638.000000	0.728789
1637.000000	0.733261
1636.000000	0.738861
1635.000000	0.743278
1634.000000	0.745229
1633.000000	0.745996
1632.000000	0.746864
1631.000000	0.748062
1630.000000	0.749455
1629.000000	0.751014
1628.000000	0.752519
1627.000000	0.753449
1626.000000	0.753804
1625.000000	0.754229
1624.000000	0.754784
1623.000000	0.754553
1622.000000	0.752973
1621.000000	0.750556
1620.000000	0.747880
1619.000000	0.744985
1618.000000	0.741771
1617.000000	0.738231
1616.000000	0.734255
1615.000000	0.729404
1614.000000	0.723435
1613.000000	0.716746
1612.000000	0.709812
1611.000000	0.702558
1610.000000	0.694785
1609.000000	0.686728
1608.000000	0.678632
1607.000000	0.670294
1606.000000	0.661450
1605.000000	0.652216
1604.000000	0.642781
1603.000000	0.633014
1602.000000	0.622783
1601.000000	0.612307
1600.000000	0.601863
1599.000000	0.591410
1598.000000	0.580748
1597.000000	0.569869
1596.000000	0.558824
1595.000000	0.547455
1594.000000	0.535567
1593.000000	0.523208
1592.000000	0.510567
1591.000000	0.497686
1590.000000	0.484530
1589.000000	0.471231
1588.000000	0.458017
1587.000000	0.444997
1586.000000	0.432183
1585.000000	0.419661
1584.000000	0.407562
1583.000000	0.395907
1582.000000	0.384637
1581.000000	0.373742
1580.000000	0.363279
1579.000000	0.353281
1578.000000	0.343704
1577.000000	0.334298
1576.000000	0.324990
1575.000000	0.316442
1574.000000	0.309131
1573.000000	0.302782
1572.000000	0.297094
1571.000000	0.291622
1570.000000	0.285681
1569.000000	0.279168
1568.000000	0.272829
1567.000000	0.267407
1566.000000	0.262820
1565.000000	0.258439
1564.000000	0.253893
1563.000000	0.249664
1562.000000	0.246981
1561.000000	0.246915
1560.000000	0.247566
1559.000000	0.247039
1558.000000	0.244601
1557.000000	0.240987
1556.000000	0.237791
1555.000000	0.235528
1554.000000	0.234002
1553.000000	0.232835
1552.000000	0.231935
1551.000000	0.231409
1550.000000	0.231149
1549.000000	0.230761
1548.000000	0.230181
1547.000000	0.229865
1546.000000	0.230061
1545.000000	0.230537
1544.000000	0.231038
1543.000000	0.231529
1542.000000	0.232043
1541.000000	0.232649
1540.000000	0.233394
1539.000000	0.233858
1538.000000	0.234282
1537.000000	0.235179
1536.000000	0.236710
1535.000000	0.239148
1534.000000	0.242221
1533.000000	0.245007
1532.000000	0.246938
1531.000000	0.248517
1530.000000	0.250564
1529.000000	0.253214
1528.000000	0.256231
1527.000000	0.259566
1526.000000	0.263072
1525.000000	0.266309
1524.000000	0.269271
1523.000000	0.272856
1522.000000	0.278034
1521.000000	0.284298
1520.000000	0.290086
1519.000000	0.294832
1518.000000	0.298943
1517.000000	0.302569
1516.000000	0.305141
1515.000000	0.306204
1514.000000	0.306080
1513.000000	0.305157
1512.000000	0.303400
1511.000000	0.300803
1510.000000	0.297647
1509.000000	0.294306
1508.000000	0.290851
1507.000000	0.286829
1506.000000	0.280614
1505.000000	0.272873
1504.000000	0.265682
1503.000000	0.259274
1502.000000	0.253379
1501.000000	0.247936
1500.000000	0.242643
1499.000000	0.237121
1498.000000	0.231409
1497.000000	0.225966
1496.000000	0.221156
1495.000000	0.217174
1494.000000	0.214217
1493.000000	0.212423
1492.000000	0.211690
1491.000000	0.211653
1490.000000	0.212178
1489.000000	0.213263
1488.000000	0.214597
1487.000000	0.215972
1486.000000	0.217642
1485.000000	0.219983
1484.000000	0.223182
1483.000000	0.227291
1482.000000	0.232356
1481.000000	0.238261
1480.000000	0.244718
1479.000000	0.251725
1478.000000	0.259617
1477.000000	0.268458
1476.000000	0.277868
1475.000000	0.287922
1474.000000	0.299596
1473.000000	0.313412
1472.000000	0.327823
1471.000000	0.340605
1470.000000	0.351459
1469.000000	0.361417
1468.000000	0.371156
1467.000000	0.380739
1466.000000	0.389866
1465.000000	0.397807
1464.000000	0.403701
1463.000000	0.407614
1462.000000	0.410608
1461.000000	0.413511
1460.000000	0.416578
1459.000000	0.420180
1458.000000	0.424929
1457.000000	0.430180
1456.000000	0.433937
1455.000000	0.435658
1454.000000	0.436242
1453.000000	0.436398
1452.000000	0.436499
1451.000000	0.436667
1450.000000	0.436939
1449.000000	0.437225
1448.000000	0.437239
1447.000000	0.436804
1446.000000	0.436121
1445.000000	0.435555
1444.000000	0.435313
1443.000000	0.435430
1442.000000	0.435873
1441.000000	0.436566
1440.000000	0.437573
1439.000000	0.439293
1438.000000	0.442031
1437.000000	0.445198
1436.000000	0.447656
1435.000000	0.449059
1434.000000	0.450122
1433.000000	0.451647
1432.000000	0.453835
1431.000000	0.456340
1430.000000	0.458714
1429.000000	0.460641
1428.000000	0.461938
1427.000000	0.462753
1426.000000	0.463458
1425.000000	0.464138
1424.000000	0.464444
1423.000000	0.464076
1422.000000	0.463340
1421.000000	0.462791
1420.000000	0.462247
1419.000000	0.461051
1418.000000	0.458995
1417.000000	0.456288
1416.000000	0.453231
1415.000000	0.450170
1414.000000	0.447371
1413.000000	0.444896
1412.000000	0.442678
1411.000000	0.440674
1410.000000	0.438867
1409.000000	0.437218
1408.000000	0.435703
1407.000000	0.434393
1406.000000	0.433341
1405.000000	0.432380
1404.000000	0.431258
1403.000000	0.430044
1402.000000	0.429143
1401.000000	0.428771
1400.000000	0.428726
1399.000000	0.428732
1398.000000	0.428792
1397.000000	0.429175
1396.000000	0.430130
1395.000000	0.431588
1394.000000	0.433144
1393.000000	0.434538
1392.000000	0.435977
1391.000000	0.437875
1390.000000	0.440547
1389.000000	0.444092
1388.000000	0.448323
1387.000000	0.452800
1386.000000	0.457030
1385.000000	0.460815
1384.000000	0.464327
1383.000000	0.467791
1382.000000	0.471237
1381.000000	0.474539
1380.000000	0.477564
1379.000000	0.480236
1378.000000	0.482511
1377.000000	0.484376
1376.000000	0.485870
1375.000000	0.487079
1374.000000	0.487948
1373.000000	0.488173
1372.000000	0.487564
1371.000000	0.486309
1370.000000	0.484677
1369.000000	0.482671
1368.000000	0.480121
1367.000000	0.477036
1366.000000	0.473677
1365.000000	0.470259
1364.000000	0.466794
1363.000000	0.463269
1362.000000	0.459658
1361.000000	0.455854
1360.000000	0.451887
1359.000000	0.448024
1358.000000	0.444548
1357.000000	0.441545
1356.000000	0.438955
1355.000000	0.436769
1354.000000	0.435046
1353.000000	0.433783
1352.000000	0.432925
1351.000000	0.432521
1350.000000	0.432701
1349.000000	0.433510
1348.000000	0.434901
1347.000000	0.436874
1346.000000	0.439483
1345.000000	0.442668
1344.000000	0.446252
1343.000000	0.450141
1342.000000	0.454408
1341.000000	0.459165
1340.000000	0.464419
1339.000000	0.470011
1338.000000	0.475681
1337.000000	0.481216
1336.000000	0.486527
1335.000000	0.491626
1334.000000	0.496578
1333.000000	0.501402
1332.000000	0.506040
1331.000000	0.510455
1330.000000	0.514676
1329.000000	0.518729
1328.000000	0.522613
1327.000000	0.526403
1326.000000	0.530289
1325.000000	0.534430
1324.000000	0.538855
1323.000000	0.543569
1322.000000	0.548623
1321.000000	0.553933
1320.000000	0.559100
1319.000000	0.563486
1318.000000	0.566372
1317.000000	0.567093
1316.000000	0.565156
1315.000000	0.560459
1314.000000	0.553397
1313.000000	0.544620
1312.000000	0.534816
1311.000000	0.524676
1310.000000	0.514808
1309.000000	0.505587
1308.000000	0.497142
1307.000000	0.489533
1306.000000	0.482827
1305.000000	0.476979
1304.000000	0.471823
1303.000000	0.467221
1302.000000	0.463113
1301.000000	0.459433
1300.000000	0.456134
1299.000000	0.453280
1298.000000	0.451028
1297.000000	0.449459
1296.000000	0.448548
1295.000000	0.448280
1294.000000	0.448657
1293.000000	0.449619
1292.000000	0.451054
1291.000000	0.452908
1290.000000	0.455208
1289.000000	0.457926
1288.000000	0.460928
1287.000000	0.464074
1286.000000	0.467258
1285.000000	0.470360
1284.000000	0.473230
1283.000000	0.475787
1282.000000	0.478058
1281.000000	0.480104
1280.000000	0.481994
1279.000000	0.483852
1278.000000	0.485826
1277.000000	0.487947
1276.000000	0.490126
1275.000000	0.492285
1274.000000	0.494427
1273.000000	0.496525
1272.000000	0.498489
1271.000000	0.500274
1270.000000	0.501921
1269.000000	0.503442
1268.000000	0.504767
1267.000000	0.505844
1266.000000	0.506700
1265.000000	0.507345
1264.000000	0.507739
1263.000000	0.507893
1262.000000	0.507893
1261.000000	0.507789
1260.000000	0.507545
1259.000000	0.507164
1258.000000	0.506726
1257.000000	0.506275
1256.000000	0.505778
1255.000000	0.505259
1254.000000	0.504817
1253.000000	0.504506
1252.000000	0.504269
1251.000000	0.504052
1250.000000	0.503860
1249.000000	0.503669
1248.000000	0.503390
1247.000000	0.502971
1246.000000	0.502426
1245.000000	0.501742
1244.000000	0.500863
1243.000000	0.499794
1242.000000	0.498604
1241.000000	0.497302
1240.000000	0.495825
1239.000000	0.494154
1238.000000	0.492326
1237.000000	0.490310
1236.000000	0.488009
1235.000000	0.485408
1234.000000	0.482584
1233.000000	0.479571
1232.000000	0.476311
1231.000000	0.472781
1230.000000	0.469033
1229.000000	0.465094
1228.000000	0.460958
1227.000000	0.456693
1226.000000	0.452414
1225.000000	0.448167
1224.000000	0.443925
1223.000000	0.439728
1222.000000	0.435676
1221.000000	0.431812
1220.000000	0.428112
1219.000000	0.424592
1218.000000	0.421309
1217.000000	0.418256
1216.000000	0.415379
1215.000000	0.412670
1214.000000	0.410179
1213.000000	0.407918
1212.000000	0.405872
1211.000000	0.404069
1210.000000	0.402537
1209.000000	0.401202
1208.000000	0.399932
1207.000000	0.398658
1206.000000	0.397370
1205.000000	0.396011
1204.000000	0.394491
1203.000000	0.392772
1202.000000	0.390869
1201.000000	0.388770
1200.000000	0.386468
1199.000000	0.384045
1198.000000	0.381643
1197.000000	0.379379
1196.000000	0.377364
1195.000000	0.375750
1194.000000	0.374681
1193.000000	0.374213
1192.000000	0.374361
1191.000000	0.375200
1190.000000	0.376792
1189.000000	0.379123
1188.000000	0.382149
1187.000000	0.385872
1186.000000	0.390321
1185.000000	0.395436
1184.000000	0.401159
1183.000000	0.407584
1182.000000	0.414904
1181.000000	0.423241
1180.000000	0.432522
1179.000000	0.442603
1178.000000	0.453424
1177.000000	0.465027
1176.000000	0.477545
1175.000000	0.491147
1174.000000	0.505963
1173.000000	0.521998
1172.000000	0.539121
1171.000000	0.557203
1170.000000	0.576181
1169.000000	0.595923
1168.000000	0.616083
1167.000000	0.636209
1166.000000	0.655877
1165.000000	0.674672
1164.000000	0.692075
1163.000000	0.707600
1162.000000	0.721106
1161.000000	0.732647
1160.000000	0.742279
1159.000000	0.750137
1158.000000	0.756506
1157.000000	0.761658
1156.000000	0.765555
1155.000000	0.768123
1154.000000	0.769567
1153.000000	0.770136
1152.000000	0.769898
1151.000000	0.768881
1150.000000	0.767310
1149.000000	0.765390
1148.000000	0.763038
1147.000000	0.760152
1146.000000	0.756871
1145.000000	0.753374
1144.000000	0.749673
1143.000000	0.745828
1142.000000	0.742154
1141.000000	0.738959
1140.000000	0.736325
1139.000000	0.734332
1138.000000	0.733298
1137.000000	0.733501
1136.000000	0.734925
1135.000000	0.737476
1134.000000	0.741215
1133.000000	0.746216
1132.000000	0.752297
1131.000000	0.759178
1130.000000	0.766754
1129.000000	0.774927
1128.000000	0.783413
1127.000000	0.791920
1126.000000	0.800406
1125.000000	0.808895
1124.000000	0.817217
1123.000000	0.825240
1122.000000	0.833165
1121.000000	0.841262
1120.000000	0.849510
1119.000000	0.857834
1118.000000	0.866442
1117.000000	0.875550
1116.000000	0.884975
1115.000000	0.894359
1114.000000	0.903600
1113.000000	0.912621
1112.000000	0.921023
1111.000000	0.928432
1110.000000	0.934933
1109.000000	0.940730
1108.000000	0.945600
1107.000000	0.949245
1106.000000	0.951872
1105.000000	0.953785
1104.000000	0.954854
1103.000000	0.954875
1102.000000	0.954185
1101.000000	0.953344
1100.000000	0.952520
1099.000000	0.951743
1098.000000	0.951382
1097.000000	0.951841
1096.000000	0.953080
1095.000000	0.954982
1094.000000	0.957840
1093.000000	0.962017
1092.000000	0.967428
1091.000000	0.973823
1090.000000	0.981347
1089.000000	0.990196
1088.000000	1.000050
1087.000000	1.010434
1086.000000	1.021310
1085.000000	1.032755
1084.000000	1.044348
1083.000000	1.055541
1082.000000	1.066332
1081.000000	1.076815
1080.000000	1.086351
1079.000000	1.094037
1078.000000	1.099695
1077.000000	1.103474
1076.000000	1.105098
1075.000000	1.104277
1074.000000	1.101549
1073.000000	1.097810
1072.000000	1.093445
1071.000000	1.088811
1070.000000	1.084892
1069.000000	1.082665
1068.000000	1.082258
1067.000000	1.083484
1066.000000	1.086588
1065.000000	1.091800
1064.000000	1.098576
1063.000000	1.106061
1062.000000	1.114017
1061.000000	1.122444
1060.000000	1.130795
1059.000000	1.138462
1058.000000	1.145617
1057.000000	1.152654
1056.000000	1.159237
1055.000000	1.164825
1054.000000	1.169652
1053.000000	1.174182
1052.000000	1.178069
1051.000000	1.180823
1050.000000	1.182968
1049.000000	1.185298
1048.000000	1.187622
1047.000000	1.189384
1046.000000	1.190920
1045.000000	1.192928
1044.000000	1.195340
1043.000000	1.197831
1042.000000	1.200846
1041.000000	1.204975
1040.000000	1.209818
1039.000000	1.214550
1038.000000	1.219131
1037.000000	1.223856
1036.000000	1.228223
1035.000000	1.231442
1034.000000	1.233606
1033.000000	1.235242
1032.000000	1.236187
1031.000000	1.236043
1030.000000	1.235194
1029.000000	1.234170
1028.000000	1.232652
1027.000000	1.230132
1026.000000	1.226969
1025.000000	1.223732
1024.000000	1.220082
1023.000000	1.215435
1022.000000	1.210035
1021.000000	1.204356
1020.000000	1.198132
1019.000000	1.190897
1018.000000	1.182902
1017.000000	1.174504
1016.000000	1.165299
1015.000000	1.154860
1014.000000	1.143593
1013.000000	1.132100
1012.000000	1.120284
1011.000000	1.107822
1010.000000	1.094970
1009.000000	1.082088
1008.000000	1.069028
1007.000000	1.055626
1006.000000	1.042219
1005.000000	1.029121
1004.000000	1.016054
1003.000000	1.002657
1002.000000	0.989071
1001.000000	0.975529
1000.000000	0.961900
999.000000	0.948040
998.000000	0.934167
997.000000	0.920476
996.000000	0.906719
995.000000	0.892586
994.000000	0.878040
993.000000	0.862997
992.000000	0.847124
991.000000	0.830167
990.000000	0.812269
989.000000	0.793595
988.000000	0.773983
987.000000	0.753281
986.000000	0.731548
985.000000	0.708927
984.000000	0.685505
983.000000	0.661452
982.000000	0.637131
981.000000	0.612843
980.000000	0.588795
979.000000	0.565269
978.000000	0.542568
977.000000	0.520832
976.000000	0.500063
975.000000	0.480331
974.000000	0.461760
973.000000	0.444351
972.000000	0.428002
971.000000	0.412682
970.000000	0.398397
969.000000	0.385050
968.000000	0.372492
967.000000	0.360641
966.000000	0.349456
965.000000	0.338837
964.000000	0.328666
963.000000	0.318915
962.000000	0.309573
961.000000	0.300553
960.000000	0.291777
959.000000	0.283268
958.000000	0.275071
957.000000	0.267144
956.000000	0.259421
955.000000	0.251921
954.000000	0.244672
953.000000	0.237650
952.000000	0.230848
951.000000	0.224351
950.000000	0.218260
949.000000	0.212618
948.000000	0.207498
947.000000	0.203027
946.000000	0.199244
945.000000	0.196039
944.000000	0.193273
943.000000	0.190884
942.000000	0.188776
941.000000	0.186754
940.000000	0.184675
939.000000	0.182543
938.000000	0.180417
937.000000	0.178302
936.000000	0.176207
935.000000	0.174205
934.000000	0.172336
933.000000	0.170572
932.000000	0.168907
931.000000	0.167404
930.000000	0.166066
929.000000	0.164785
928.000000	0.163479
927.000000	0.162160
926.000000	0.160802
925.000000	0.159275
924.000000	0.157470
923.000000	0.155397
922.000000	0.153077
921.000000	0.150475
920.000000	0.147586
919.000000	0.144490
918.000000	0.141238
917.000000	0.137792
916.000000	0.134147
915.000000	0.130372
914.000000	0.126475
913.000000	0.122351
912.000000	0.117941
911.000000	0.113333
910.000000	0.108635
909.000000	0.103901
908.000000	0.099241
907.000000	0.094866
906.000000	0.090932
905.000000	0.087466
904.000000	0.084486
903.000000	0.082046
902.000000	0.080119
901.000000	0.078539
900.000000	0.077163
899.000000	0.075925
898.000000	0.074708
897.000000	0.073315
896.000000	0.071638
895.000000	0.069719
894.000000	0.067588
893.000000	0.065187
892.000000	0.062513
891.000000	0.059665
890.000000	0.056692
889.000000	0.053526
888.000000	0.050159
887.000000	0.046709
886.000000	0.043282
885.000000	0.039893
884.000000	0.036611
883.000000	0.033589
882.000000	0.030898
881.000000	0.028472
880.000000	0.026291
879.000000	0.024465
878.000000	0.023039
877.000000	0.021929
876.000000	0.021077
875.000000	0.020535
874.000000	0.020305
873.000000	0.020248
872.000000	0.020267
871.000000	0.020394
870.000000	0.020664
869.000000	0.021035
868.000000	0.021496
867.000000	0.022092
866.000000	0.022774
865.000000	0.023366
864.000000	0.023732
863.000000	0.023851
862.000000	0.023697
861.000000	0.023218
860.000000	0.022480
859.000000	0.021664
858.000000	0.020860
857.000000	0.019987
856.000000	0.018959
855.000000	0.017794
854.000000	0.016497
853.000000	0.015031
852.000000	0.013444
851.000000	0.011875
850.000000	0.010385
849.000000	0.008923
848.000000	0.007512
847.000000	0.006287
846.000000	0.005323
845.000000	0.004562
844.000000	0.004014
843.000000	0.003806
842.000000	0.004016
841.000000	0.004583
840.000000	0.005445
839.000000	0.006615
838.000000	0.008035
837.000000	0.009538
836.000000	0.010978
835.000000	0.012271
834.000000	0.013245
833.000000	0.013657
832.000000	0.013425
831.000000	0.012718
830.000000	0.011756
829.000000	0.010689
828.000000	0.009713
827.000000	0.009099
826.000000	0.008985
825.000000	0.009284
824.000000	0.009873
823.000000	0.010707
822.000000	0.011708
821.000000	0.012731
820.000000	0.013723
819.000000	0.014754
818.000000	0.015845
817.000000	0.016904
816.000000	0.017899
815.000000	0.018903
814.000000	0.019938
813.000000	0.020944
812.000000	0.021955
811.000000	0.023168
810.000000	0.024741
809.000000	0.026675
808.000000	0.028944
807.000000	0.031586
806.000000	0.034601
805.000000	0.037896
804.000000	0.041408
803.000000	0.045135
802.000000	0.049006
801.000000	0.052842
800.000000	0.056487
799.000000	0.059851
798.000000	0.062803
797.000000	0.065194
796.000000	0.067079
795.000000	0.068770
794.000000	0.070622
793.000000	0.072875
792.000000	0.075742
791.000000	0.079495
790.000000	0.084383
789.000000	0.090619
788.000000	0.098483
787.000000	0.108242
786.000000	0.119849
785.000000	0.132720
784.000000	0.145803
783.000000	0.157711
782.000000	0.166909
781.000000	0.172130
780.000000	0.172970
779.000000	0.170121
778.000000	0.164915
777.000000	0.158731
776.000000	0.152670
775.000000	0.147457
774.000000	0.143357
773.000000	0.140229
772.000000	0.137806
771.000000	0.135894
770.000000	0.134365
769.000000	0.133131
768.000000	0.132208
767.000000	0.131654
766.000000	0.131351
765.000000	0.130976
764.000000	0.130249
763.000000	0.129071
762.000000	0.127394
761.000000	0.125123
760.000000	0.122243
759.000000	0.118903
758.000000	0.115261
757.000000	0.111364
756.000000	0.107249
755.000000	0.103029
754.000000	0.098810
753.000000	0.094638
752.000000	0.090599
751.000000	0.086830
750.000000	0.083375
749.000000	0.080154
748.000000	0.077132
747.000000	0.074379
746.000000	0.071920
745.000000	0.069671
744.000000	0.067594
743.000000	0.065786
742.000000	0.064334
741.000000	0.063220
740.000000	0.062411
739.000000	0.061912
738.000000	0.061699
737.000000	0.061717
736.000000	0.062000
735.000000	0.062667
734.000000	0.063736
733.000000	0.065097
732.000000	0.066680
731.000000	0.068512
730.000000	0.070557
729.000000	0.072684
728.000000	0.074837
727.000000	0.077127
726.000000	0.079661
725.000000	0.082415
724.000000	0.085319
723.000000	0.088356
722.000000	0.091498
721.000000	0.094663
720.000000	0.097807
719.000000	0.100953
718.000000	0.104088
717.000000	0.107142
716.000000	0.110103
715.000000	0.113025
714.000000	0.115883
713.000000	0.118524
712.000000	0.120856
711.000000	0.122938
710.000000	0.124844
709.000000	0.126545
708.000000	0.128010
707.000000	0.129286
706.000000	0.130423
705.000000	0.131430
704.000000	0.132358
703.000000	0.133323
702.000000	0.134388
701.000000	0.135554
700.000000	0.136901
699.000000	0.138591
698.000000	0.140631
697.000000	0.142775
696.000000	0.144719
695.000000	0.146303
694.000000	0.147445
693.000000	0.148056
692.000000	0.148177
691.000000	0.148054
690.000000	0.147958
689.000000	0.148006
688.000000	0.148235
687.000000	0.148707
686.000000	0.149444
685.000000	0.150391
684.000000	0.151544
683.000000	0.152997
682.000000	0.154775
681.000000	0.156781
680.000000	0.158979
679.000000	0.161469
678.000000	0.164272
677.000000	0.167215
676.000000	0.170142
675.000000	0.173037
674.000000	0.175898
673.000000	0.178598
672.000000	0.180935
671.000000	0.182808
670.000000	0.184300
669.000000	0.185594
668.000000	0.186894
667.000000	0.188320
666.000000	0.189669
665.000000	0.190635
664.000000	0.191165
663.000000	0.191368
662.000000	0.191340
661.000000	0.191062
660.000000	0.190543
659.000000	0.189948
658.000000	0.189478
657.000000	0.189214
656.000000	0.189174
655.000000	0.189361
654.000000	0.189767
653.000000	0.190393
652.000000	0.191246
651.000000	0.192311
650.000000	0.193530
649.000000	0.194851
648.000000	0.196289
647.000000	0.197865
646.000000	0.199510
645.000000	0.201083
644.000000	0.202491
643.000000	0.203740
642.000000	0.204870
641.000000	0.205917
640.000000	0.206923
639.000000	0.207932
638.000000	0.208942
637.000000	0.209929
636.000000	0.210897
635.000000	0.211855
634.000000	0.212763
633.000000	0.213589
632.000000	0.214423
631.000000	0.215428
630.000000	0.216668
629.000000	0.218065
628.000000	0.219556
627.000000	0.221182
626.000000	0.222999
625.000000	0.224992
624.000000	0.227127
623.000000	0.229395
622.000000	0.231755
621.000000	0.234073
620.000000	0.236174
619.000000	0.237912
618.000000	0.239200
617.000000	0.240070
616.000000	0.240713
615.000000	0.241366
614.000000	0.242109
613.000000	0.242824
612.000000	0.243374
611.000000	0.243733
610.000000	0.243907
609.000000	0.243819
608.000000	0.243389
607.000000	0.242665
606.000000	0.241808
605.000000	0.240949
604.000000	0.240142
603.000000	0.239407
602.000000	0.238738
601.000000	0.238125
600.000000	0.237605
599.000000	0.237248
598.000000	0.237062
597.000000	0.236978
596.000000	0.236956
595.000000	0.237021
594.000000	0.237166
593.000000	0.237321
592.000000	0.237486
591.000000	0.237783
590.000000	0.238350
589.000000	0.239249
588.000000	0.240517
587.000000	0.242177
586.000000	0.244155
585.000000	0.246279
584.000000	0.248423
583.000000	0.250576
582.000000	0.252719
581.000000	0.254732
580.000000	0.256496
579.000000	0.257991
578.000000	0.259252
577.000000	0.260229
576.000000	0.260784
575.000000	0.260818
574.000000	0.260369
573.000000	0.259584
572.000000	0.258592
571.000000	0.257451
570.000000	0.256187
569.000000	0.254881
568.000000	0.253691
567.000000	0.252761
566.000000	0.252119
565.000000	0.251716
564.000000	0.251553
563.000000	0.251637
562.000000	0.251845
561.000000	0.251950
560.000000	0.251814
559.000000	0.251435
558.000000	0.250838
557.000000	0.250052
556.000000	0.249215
555.000000	0.248530
554.000000	0.248066
553.000000	0.247749
552.000000	0.247576
551.000000	0.247668
550.000000	0.248087
549.000000	0.248803
548.000000	0.249876
547.000000	0.251477
546.000000	0.253655
545.000000	0.256262
544.000000	0.259195
543.000000	0.262510
542.000000	0.266262
541.000000	0.270389
540.000000	0.274773
539.000000	0.279229
538.000000	0.283465
537.000000	0.287222
536.000000	0.290423
535.000000	0.293051
534.000000	0.294985
533.000000	0.296155
532.000000	0.296750
531.000000	0.297061
530.000000	0.297182
529.000000	0.297048
528.000000	0.296682
527.000000	0.296209
526.000000	0.295660
525.000000	0.294981
524.000000	0.294236
523.000000	0.293595
522.000000	0.293051
521.000000	0.292323
520.000000	0.291139
519.000000	0.289436
518.000000	0.287246
517.000000	0.284562
516.000000	0.281365
515.000000	0.277664
514.000000	0.273425
513.000000	0.268576
512.000000	0.263211
511.000000	0.257648
510.000000	0.252212
509.000000	0.247001
508.000000	0.241919
507.000000	0.236869
506.000000	0.231990
505.000000	0.227817
504.000000	0.224985
503.000000	0.223386
502.000000	0.221684
501.000000	0.218410
500.000000	0.213672
499.000000	0.209010
498.000000	0.205613
497.000000	0.203317
496.000000	0.201448
495.000000	0.199877
494.000000	0.198863
493.000000	0.198412
492.000000	0.198335
491.000000	0.198625
490.000000	0.199334
489.000000	0.200349
488.000000	0.201640
487.000000	0.203383
486.000000	0.205578
485.000000	0.207881
484.000000	0.210084
483.000000	0.212395
482.000000	0.214937
481.000000	0.217370
480.000000	0.219327
479.000000	0.220865
478.000000	0.222143
477.000000	0.223059
476.000000	0.223521
475.000000	0.223730
474.000000	0.223860
473.000000	0.223636
472.000000	0.222633
471.000000	0.220746
470.000000	0.218178
469.000000	0.215074
468.000000	0.211460
467.000000	0.207459
466.000000	0.203192
465.000000	0.198607
464.000000	0.193694
463.000000	0.188706
462.000000	0.183947
461.000000	0.179458
460.000000	0.175097
459.000000	0.170688
458.000000	0.165959
457.000000	0.160715
456.000000	0.155238
455.000000	0.150135
454.000000	0.145534
453.000000	0.141021
452.000000	0.136524
451.000000	0.132528
450.000000	0.129195
449.000000	0.125969
448.000000	0.122495
447.000000	0.119268
446.000000	0.116800
445.000000	0.114816
444.000000	0.112771
443.000000	0.110571
442.000000	0.108345
441.000000	0.106050
440.000000	0.103801
439.000000	0.101921
438.000000	0.100231
437.000000	0.098044
436.000000	0.095287
435.000000	0.092797
434.000000	0.091029
433.000000	0.089433
432.000000	0.087505
431.000000	0.085407
430.000000	0.083142
429.000000	0.080228
428.000000	0.076703
427.000000	0.073392
426.000000	0.070575
425.000000	0.067561
424.000000	0.064192
423.000000	0.061408
422.000000	0.059473
421.000000	0.057153
420.000000	0.053447
419.000000	0.049440
418.000000	0.046522
417.000000	0.043570
416.000000	0.039627
415.000000	0.035699
414.000000	0.032575
413.000000	0.029338
412.000000	0.025017
411.000000	0.020429
410.000000	0.016666
409.000000	0.013236
408.000000	0.009391
407.000000	0.005853
406.000000	0.003439
405.000000	0.001572
404.000000	0.000067
403.000000	0.000304
402.000000	0.003023
401.000000	0.006601
400.000000	0.009585
