PE IR       SUBTECH     SPECTRUM    ASCII       PEDS        4.00        
   -1
G001-120C.asc
17/02/23
11:04:47.00
17/02/23
11:07:57.00
Administrator
Sample 125 By Administrator Date Thursday, February 23 2017
400.000000
#HDR
-1
-1
#GR
cm-1
A
1.0
0.0
4000.000000
-1.000000
3601
8
1.233528
-0.002131
#DATA
4000.000000	0.003792
3999.000000	0.003895
3998.000000	0.004006
3997.000000	0.004122
3996.000000	0.004236
3995.000000	0.004349
3994.000000	0.004465
3993.000000	0.004587
3992.000000	0.004709
3991.000000	0.004820
3990.000000	0.004918
3989.000000	0.005011
3988.000000	0.005111
3987.000000	0.005227
3986.000000	0.005353
3985.000000	0.005478
3984.000000	0.005588
3983.000000	0.005678
3982.000000	0.005753
3981.000000	0.005830
3980.000000	0.005926
3979.000000	0.006043
3978.000000	0.006174
3977.000000	0.006304
3976.000000	0.006424
3975.000000	0.006535
3974.000000	0.006638
3973.000000	0.006733
3972.000000	0.006819
3971.000000	0.006902
3970.000000	0.006987
3969.000000	0.007080
3968.000000	0.007179
3967.000000	0.007287
3966.000000	0.007406
3965.000000	0.007536
3964.000000	0.007664
3963.000000	0.007780
3962.000000	0.007887
3961.000000	0.007993
3960.000000	0.008104
3959.000000	0.008212
3958.000000	0.008303
3957.000000	0.008379
3956.000000	0.008457
3955.000000	0.008560
3954.000000	0.008697
3953.000000	0.008867
3952.000000	0.009062
3951.000000	0.009263
3950.000000	0.009450
3949.000000	0.009613
3948.000000	0.009765
3947.000000	0.009928
3946.000000	0.010110
3945.000000	0.010281
3944.000000	0.010391
3943.000000	0.010425
3942.000000	0.010421
3941.000000	0.010430
3940.000000	0.010469
3939.000000	0.010523
3938.000000	0.010586
3937.000000	0.010687
3936.000000	0.010857
3935.000000	0.011086
3934.000000	0.011319
3933.000000	0.011505
3932.000000	0.011639
3931.000000	0.011749
3930.000000	0.011862
3929.000000	0.011988
3928.000000	0.012109
3927.000000	0.012198
3926.000000	0.012245
3925.000000	0.012272
3924.000000	0.012336
3923.000000	0.012483
3922.000000	0.012716
3921.000000	0.012992
3920.000000	0.013247
3919.000000	0.013437
3918.000000	0.013553
3917.000000	0.013608
3916.000000	0.013624
3915.000000	0.013613
3914.000000	0.013578
3913.000000	0.013512
3912.000000	0.013419
3911.000000	0.013344
3910.000000	0.013362
3909.000000	0.013538
3908.000000	0.013890
3907.000000	0.014367
3906.000000	0.014890
3905.000000	0.015402
3904.000000	0.015910
3903.000000	0.016445
3902.000000	0.016976
3901.000000	0.017385
3900.000000	0.017553
3899.000000	0.017450
3898.000000	0.017179
3897.000000	0.016894
3896.000000	0.016706
3895.000000	0.016650
3894.000000	0.016679
3893.000000	0.016710
3892.000000	0.016700
3891.000000	0.016709
3890.000000	0.016860
3889.000000	0.017221
3888.000000	0.017716
3887.000000	0.018139
3886.000000	0.018352
3885.000000	0.018441
3884.000000	0.018607
3883.000000	0.018917
3882.000000	0.019218
3881.000000	0.019306
3880.000000	0.019161
3879.000000	0.018977
3878.000000	0.018956
3877.000000	0.019124
3876.000000	0.019339
3875.000000	0.019477
3874.000000	0.019582
3873.000000	0.019805
3872.000000	0.020203
3871.000000	0.020659
3870.000000	0.021021
3869.000000	0.021287
3868.000000	0.021567
3867.000000	0.021898
3866.000000	0.022184
3865.000000	0.022280
3864.000000	0.022179
3863.000000	0.022032
3862.000000	0.021961
3861.000000	0.021988
3860.000000	0.022086
3859.000000	0.022273
3858.000000	0.022621
3857.000000	0.023174
3856.000000	0.023871
3855.000000	0.024506
3854.000000	0.024949
3853.000000	0.025358
3852.000000	0.025832
3851.000000	0.026203
3850.000000	0.026285
3849.000000	0.026051
3848.000000	0.025606
3847.000000	0.025137
3846.000000	0.024802
3845.000000	0.024657
3844.000000	0.024698
3843.000000	0.024917
3842.000000	0.025295
3841.000000	0.025811
3840.000000	0.026400
3839.000000	0.026975
3838.000000	0.027496
3837.000000	0.027956
3836.000000	0.028343
3835.000000	0.028618
3834.000000	0.028735
3833.000000	0.028676
3832.000000	0.028475
3831.000000	0.028242
3830.000000	0.028119
3829.000000	0.028150
3828.000000	0.028261
3827.000000	0.028377
3826.000000	0.028524
3825.000000	0.028823
3824.000000	0.029349
3823.000000	0.029996
3822.000000	0.030537
3821.000000	0.030883
3820.000000	0.031190
3819.000000	0.031626
3818.000000	0.032158
3817.000000	0.032559
3816.000000	0.032659
3815.000000	0.032555
3814.000000	0.032481
3813.000000	0.032532
3812.000000	0.032633
3811.000000	0.032718
3810.000000	0.032814
3809.000000	0.032965
3808.000000	0.033166
3807.000000	0.033421
3806.000000	0.033810
3805.000000	0.034421
3804.000000	0.035203
3803.000000	0.035935
3802.000000	0.036393
3801.000000	0.036599
3800.000000	0.036805
3799.000000	0.037168
3798.000000	0.037573
3797.000000	0.037794
3796.000000	0.037748
3795.000000	0.037578
3794.000000	0.037490
3793.000000	0.037568
3792.000000	0.037741
3791.000000	0.037926
3790.000000	0.038108
3789.000000	0.038327
3788.000000	0.038618
3787.000000	0.038972
3786.000000	0.039352
3785.000000	0.039737
3784.000000	0.040141
3783.000000	0.040609
3782.000000	0.041158
3781.000000	0.041720
3780.000000	0.042187
3779.000000	0.042527
3778.000000	0.042815
3777.000000	0.043124
3776.000000	0.043465
3775.000000	0.043814
3774.000000	0.044182
3773.000000	0.044602
3772.000000	0.045087
3771.000000	0.045612
3770.000000	0.046151
3769.000000	0.046721
3768.000000	0.047335
3767.000000	0.047935
3766.000000	0.048432
3765.000000	0.048792
3764.000000	0.049102
3763.000000	0.049490
3762.000000	0.049999
3761.000000	0.050552
3760.000000	0.051040
3759.000000	0.051475
3758.000000	0.051961
3757.000000	0.052554
3756.000000	0.053239
3755.000000	0.053977
3754.000000	0.054743
3753.000000	0.055527
3752.000000	0.056341
3751.000000	0.057252
3750.000000	0.058301
3749.000000	0.059438
3748.000000	0.060584
3747.000000	0.061665
3746.000000	0.062548
3745.000000	0.063068
3744.000000	0.063311
3743.000000	0.063567
3742.000000	0.063974
3741.000000	0.064465
3740.000000	0.064925
3739.000000	0.065332
3738.000000	0.065765
3737.000000	0.066305
3736.000000	0.067009
3735.000000	0.067871
3734.000000	0.068804
3733.000000	0.069647
3732.000000	0.070253
3731.000000	0.070639
3730.000000	0.070976
3729.000000	0.071411
3728.000000	0.071952
3727.000000	0.072531
3726.000000	0.073147
3725.000000	0.073873
3724.000000	0.074740
3723.000000	0.075660
3722.000000	0.076531
3721.000000	0.077346
3720.000000	0.078149
3719.000000	0.078981
3718.000000	0.079867
3717.000000	0.080819
3716.000000	0.081873
3715.000000	0.083076
3714.000000	0.084459
3713.000000	0.086019
3712.000000	0.087712
3711.000000	0.089500
3710.000000	0.091322
3709.000000	0.093064
3708.000000	0.094639
3707.000000	0.096053
3706.000000	0.097425
3705.000000	0.098904
3704.000000	0.100568
3703.000000	0.102412
3702.000000	0.104386
3701.000000	0.106447
3700.000000	0.108543
3699.000000	0.110598
3698.000000	0.112536
3697.000000	0.114288
3696.000000	0.115830
3695.000000	0.117217
3694.000000	0.118543
3693.000000	0.119863
3692.000000	0.121182
3691.000000	0.122516
3690.000000	0.123924
3689.000000	0.125440
3688.000000	0.126995
3687.000000	0.128476
3686.000000	0.129835
3685.000000	0.131095
3684.000000	0.132312
3683.000000	0.133594
3682.000000	0.135075
3681.000000	0.136839
3680.000000	0.138898
3679.000000	0.141264
3678.000000	0.144029
3677.000000	0.147267
3676.000000	0.150833
3675.000000	0.154432
3674.000000	0.157888
3673.000000	0.161235
3672.000000	0.164565
3671.000000	0.167848
3670.000000	0.170999
3669.000000	0.174044
3668.000000	0.177062
3667.000000	0.180038
3666.000000	0.182906
3665.000000	0.185671
3664.000000	0.188435
3663.000000	0.191344
3662.000000	0.194477
3661.000000	0.197793
3660.000000	0.201224
3659.000000	0.204756
3658.000000	0.208421
3657.000000	0.212187
3656.000000	0.215947
3655.000000	0.219620
3654.000000	0.223239
3653.000000	0.226894
3652.000000	0.230640
3651.000000	0.234488
3650.000000	0.238480
3649.000000	0.242654
3648.000000	0.246852
3647.000000	0.250740
3646.000000	0.254111
3645.000000	0.257025
3644.000000	0.259682
3643.000000	0.262292
3642.000000	0.265016
3641.000000	0.267945
3640.000000	0.271102
3639.000000	0.274455
3638.000000	0.277961
3637.000000	0.281597
3636.000000	0.285346
3635.000000	0.289158
3634.000000	0.292959
3633.000000	0.296747
3632.000000	0.300671
3631.000000	0.304947
3630.000000	0.309662
3629.000000	0.314625
3628.000000	0.319464
3627.000000	0.323879
3626.000000	0.327748
3625.000000	0.331062
3624.000000	0.333893
3623.000000	0.336424
3622.000000	0.338905
3621.000000	0.341510
3620.000000	0.344265
3619.000000	0.347118
3618.000000	0.350033
3617.000000	0.352977
3616.000000	0.355924
3615.000000	0.358866
3614.000000	0.361819
3613.000000	0.364823
3612.000000	0.367934
3611.000000	0.371223
3610.000000	0.374706
3609.000000	0.378296
3608.000000	0.381849
3607.000000	0.385291
3606.000000	0.388639
3605.000000	0.391922
3604.000000	0.395159
3603.000000	0.398407
3602.000000	0.401767
3601.000000	0.405302
3600.000000	0.408973
3599.000000	0.412708
3598.000000	0.416479
3597.000000	0.420287
3596.000000	0.424142
3595.000000	0.428058
3594.000000	0.432024
3593.000000	0.435988
3592.000000	0.439905
3591.000000	0.443830
3590.000000	0.447904
3589.000000	0.452232
3588.000000	0.456798
3587.000000	0.461460
3586.000000	0.465997
3585.000000	0.470209
3584.000000	0.474034
3583.000000	0.477581
3582.000000	0.481054
3581.000000	0.484606
3580.000000	0.488296
3579.000000	0.492137
3578.000000	0.496133
3577.000000	0.500239
3576.000000	0.504381
3575.000000	0.508533
3574.000000	0.512720
3573.000000	0.516953
3572.000000	0.521222
3571.000000	0.525548
3570.000000	0.529991
3569.000000	0.534559
3568.000000	0.539192
3567.000000	0.543822
3566.000000	0.548388
3565.000000	0.552793
3564.000000	0.556956
3563.000000	0.560891
3562.000000	0.564681
3561.000000	0.568409
3560.000000	0.572124
3559.000000	0.575872
3558.000000	0.579682
3557.000000	0.583539
3556.000000	0.587420
3555.000000	0.591371
3554.000000	0.595458
3553.000000	0.599651
3552.000000	0.603828
3551.000000	0.607917
3550.000000	0.611964
3549.000000	0.616069
3548.000000	0.620293
3547.000000	0.624633
3546.000000	0.628991
3545.000000	0.633165
3544.000000	0.636984
3543.000000	0.640452
3542.000000	0.643718
3541.000000	0.646945
3540.000000	0.650253
3539.000000	0.653748
3538.000000	0.657455
3537.000000	0.661251
3536.000000	0.664941
3535.000000	0.668444
3534.000000	0.671819
3533.000000	0.675146
3532.000000	0.678470
3531.000000	0.681844
3530.000000	0.685321
3529.000000	0.688886
3528.000000	0.692486
3527.000000	0.696124
3526.000000	0.699835
3525.000000	0.703549
3524.000000	0.707095
3523.000000	0.710367
3522.000000	0.713401
3521.000000	0.716307
3520.000000	0.719190
3519.000000	0.722139
3518.000000	0.725204
3517.000000	0.728358
3516.000000	0.731538
3515.000000	0.734707
3514.000000	0.737841
3513.000000	0.740878
3512.000000	0.743774
3511.000000	0.746581
3510.000000	0.749393
3509.000000	0.752239
3508.000000	0.755101
3507.000000	0.758008
3506.000000	0.761015
3505.000000	0.764105
3504.000000	0.767180
3503.000000	0.770146
3502.000000	0.772942
3501.000000	0.775534
3500.000000	0.777963
3499.000000	0.780361
3498.000000	0.782822
3497.000000	0.785304
3496.000000	0.787706
3495.000000	0.790014
3494.000000	0.792278
3493.000000	0.794519
3492.000000	0.796754
3491.000000	0.799044
3490.000000	0.801438
3489.000000	0.803875
3488.000000	0.806247
3487.000000	0.808520
3486.000000	0.810722
3485.000000	0.812871
3484.000000	0.814997
3483.000000	0.817194
3482.000000	0.819518
3481.000000	0.821871
3480.000000	0.824097
3479.000000	0.826141
3478.000000	0.828049
3477.000000	0.829860
3476.000000	0.831614
3475.000000	0.833402
3474.000000	0.835317
3473.000000	0.837374
3472.000000	0.839549
3471.000000	0.841845
3470.000000	0.844211
3469.000000	0.846477
3468.000000	0.848458
3467.000000	0.850123
3466.000000	0.851569
3465.000000	0.852909
3464.000000	0.854256
3463.000000	0.855739
3462.000000	0.857408
3461.000000	0.859154
3460.000000	0.860810
3459.000000	0.862316
3458.000000	0.863707
3457.000000	0.865022
3456.000000	0.866310
3455.000000	0.867651
3454.000000	0.869075
3453.000000	0.870502
3452.000000	0.871854
3451.000000	0.873164
3450.000000	0.874492
3449.000000	0.875814
3448.000000	0.877069
3447.000000	0.878266
3446.000000	0.879443
3445.000000	0.880584
3444.000000	0.881659
3443.000000	0.882690
3442.000000	0.883713
3441.000000	0.884738
3440.000000	0.885816
3439.000000	0.887036
3438.000000	0.888386
3437.000000	0.889674
3436.000000	0.890692
3435.000000	0.891400
3434.000000	0.891902
3433.000000	0.892326
3432.000000	0.892787
3431.000000	0.893356
3430.000000	0.893959
3429.000000	0.894420
3428.000000	0.894668
3427.000000	0.894827
3426.000000	0.895040
3425.000000	0.895319
3424.000000	0.895629
3423.000000	0.895998
3422.000000	0.896428
3421.000000	0.896818
3420.000000	0.897091
3419.000000	0.897297
3418.000000	0.897517
3417.000000	0.897760
3416.000000	0.898024
3415.000000	0.898360
3414.000000	0.898761
3413.000000	0.899099
3412.000000	0.899271
3411.000000	0.899327
3410.000000	0.899355
3409.000000	0.899341
3408.000000	0.899248
3407.000000	0.899141
3406.000000	0.899148
3405.000000	0.899346
3404.000000	0.899763
3403.000000	0.900382
3402.000000	0.901044
3401.000000	0.901450
3400.000000	0.901397
3399.000000	0.900959
3398.000000	0.900388
3397.000000	0.899906
3396.000000	0.899654
3395.000000	0.899711
3394.000000	0.900018
3393.000000	0.900353
3392.000000	0.900479
3391.000000	0.900308
3390.000000	0.899892
3389.000000	0.899338
3388.000000	0.898789
3387.000000	0.898377
3386.000000	0.898122
3385.000000	0.897934
3384.000000	0.897758
3383.000000	0.897642
3382.000000	0.897602
3381.000000	0.897547
3380.000000	0.897399
3379.000000	0.897188
3378.000000	0.896955
3377.000000	0.896669
3376.000000	0.896310
3375.000000	0.895954
3374.000000	0.895691
3373.000000	0.895541
3372.000000	0.895491
3371.000000	0.895519
3370.000000	0.895519
3369.000000	0.895306
3368.000000	0.894788
3367.000000	0.894049
3366.000000	0.893220
3365.000000	0.892358
3364.000000	0.891499
3363.000000	0.890723
3362.000000	0.890052
3361.000000	0.889390
3360.000000	0.888634
3359.000000	0.887782
3358.000000	0.886880
3357.000000	0.885935
3356.000000	0.884964
3355.000000	0.884038
3354.000000	0.883201
3353.000000	0.882395
3352.000000	0.881530
3351.000000	0.880543
3350.000000	0.879388
3349.000000	0.878031
3348.000000	0.876529
3347.000000	0.875019
3346.000000	0.873587
3345.000000	0.872204
3344.000000	0.870821
3343.000000	0.869430
3342.000000	0.868019
3341.000000	0.866546
3340.000000	0.865006
3339.000000	0.863425
3338.000000	0.861765
3337.000000	0.859932
3336.000000	0.857925
3335.000000	0.855867
3334.000000	0.853871
3333.000000	0.851938
3332.000000	0.850037
3331.000000	0.848168
3330.000000	0.846316
3329.000000	0.844436
3328.000000	0.842522
3327.000000	0.840619
3326.000000	0.838721
3325.000000	0.836750
3324.000000	0.834677
3323.000000	0.832565
3322.000000	0.830467
3321.000000	0.828364
3320.000000	0.826240
3319.000000	0.824132
3318.000000	0.822053
3317.000000	0.819962
3316.000000	0.817841
3315.000000	0.815724
3314.000000	0.813629
3313.000000	0.811520
3312.000000	0.809393
3311.000000	0.807300
3310.000000	0.805256
3309.000000	0.803199
3308.000000	0.801081
3307.000000	0.798911
3306.000000	0.796675
3305.000000	0.794312
3304.000000	0.791806
3303.000000	0.789236
3302.000000	0.786692
3301.000000	0.784206
3300.000000	0.781787
3299.000000	0.779448
3298.000000	0.777151
3297.000000	0.774812
3296.000000	0.772388
3295.000000	0.769910
3294.000000	0.767414
3293.000000	0.764888
3292.000000	0.762323
3291.000000	0.759732
3290.000000	0.757114
3289.000000	0.754441
3288.000000	0.751729
3287.000000	0.749033
3286.000000	0.746371
3285.000000	0.743707
3284.000000	0.741021
3283.000000	0.738343
3282.000000	0.735681
3281.000000	0.732995
3280.000000	0.730258
3279.000000	0.727493
3278.000000	0.724719
3277.000000	0.721925
3276.000000	0.719111
3275.000000	0.716304
3274.000000	0.713518
3273.000000	0.710735
3272.000000	0.707946
3271.000000	0.705152
3270.000000	0.702327
3269.000000	0.699440
3268.000000	0.696519
3267.000000	0.693620
3266.000000	0.690757
3265.000000	0.687891
3264.000000	0.685007
3263.000000	0.682137
3262.000000	0.679301
3261.000000	0.676478
3260.000000	0.673654
3259.000000	0.670845
3258.000000	0.668046
3257.000000	0.665231
3256.000000	0.662394
3255.000000	0.659547
3254.000000	0.656689
3253.000000	0.653810
3252.000000	0.650930
3251.000000	0.648088
3250.000000	0.645278
3249.000000	0.642463
3248.000000	0.639632
3247.000000	0.636808
3246.000000	0.633995
3245.000000	0.631158
3244.000000	0.628286
3243.000000	0.625400
3242.000000	0.622509
3241.000000	0.619609
3240.000000	0.616707
3239.000000	0.613827
3238.000000	0.610962
3237.000000	0.608081
3236.000000	0.605176
3235.000000	0.602272
3234.000000	0.599378
3233.000000	0.596476
3232.000000	0.593564
3231.000000	0.590656
3230.000000	0.587748
3229.000000	0.584824
3228.000000	0.581885
3227.000000	0.578949
3226.000000	0.576011
3225.000000	0.573051
3224.000000	0.570075
3223.000000	0.567115
3222.000000	0.564177
3221.000000	0.561233
3220.000000	0.558269
3219.000000	0.555298
3218.000000	0.552326
3217.000000	0.549345
3216.000000	0.546355
3215.000000	0.543373
3214.000000	0.540399
3213.000000	0.537416
3212.000000	0.534420
3211.000000	0.531423
3210.000000	0.528427
3209.000000	0.525420
3208.000000	0.522409
3207.000000	0.519417
3206.000000	0.516447
3205.000000	0.513480
3204.000000	0.510506
3203.000000	0.507536
3202.000000	0.504571
3201.000000	0.501602
3200.000000	0.498631
3199.000000	0.495671
3198.000000	0.492722
3197.000000	0.489778
3196.000000	0.486838
3195.000000	0.483912
3194.000000	0.481001
3193.000000	0.478098
3192.000000	0.475202
3191.000000	0.472312
3190.000000	0.469425
3189.000000	0.466537
3188.000000	0.463663
3187.000000	0.460815
3186.000000	0.457982
3185.000000	0.455148
3184.000000	0.452318
3183.000000	0.449510
3182.000000	0.446721
3181.000000	0.443935
3180.000000	0.441144
3179.000000	0.438356
3178.000000	0.435578
3177.000000	0.432811
3176.000000	0.430062
3175.000000	0.427339
3174.000000	0.424634
3173.000000	0.421935
3172.000000	0.419245
3171.000000	0.416577
3170.000000	0.413931
3169.000000	0.411293
3168.000000	0.408663
3167.000000	0.406047
3166.000000	0.403448
3165.000000	0.400861
3164.000000	0.398291
3163.000000	0.395743
3162.000000	0.393216
3161.000000	0.390699
3160.000000	0.388194
3159.000000	0.385709
3158.000000	0.383245
3157.000000	0.380800
3156.000000	0.378379
3155.000000	0.375989
3154.000000	0.373623
3153.000000	0.371262
3152.000000	0.368888
3151.000000	0.366498
3150.000000	0.364100
3149.000000	0.361716
3148.000000	0.359366
3147.000000	0.357059
3146.000000	0.354783
3145.000000	0.352523
3144.000000	0.350281
3143.000000	0.348061
3142.000000	0.345866
3141.000000	0.343689
3140.000000	0.341526
3139.000000	0.339370
3138.000000	0.337211
3137.000000	0.335055
3136.000000	0.332917
3135.000000	0.330807
3134.000000	0.328716
3133.000000	0.326635
3132.000000	0.324571
3131.000000	0.322536
3130.000000	0.320531
3129.000000	0.318547
3128.000000	0.316578
3127.000000	0.314623
3126.000000	0.312677
3125.000000	0.310741
3124.000000	0.308830
3123.000000	0.306961
3122.000000	0.305137
3121.000000	0.303341
3120.000000	0.301551
3119.000000	0.299755
3118.000000	0.297950
3117.000000	0.296143
3116.000000	0.294343
3115.000000	0.292555
3114.000000	0.290784
3113.000000	0.289041
3112.000000	0.287341
3111.000000	0.285688
3110.000000	0.284068
3109.000000	0.282457
3108.000000	0.280841
3107.000000	0.279227
3106.000000	0.277632
3105.000000	0.276075
3104.000000	0.274561
3103.000000	0.273078
3102.000000	0.271613
3101.000000	0.270162
3100.000000	0.268727
3099.000000	0.267306
3098.000000	0.265896
3097.000000	0.264498
3096.000000	0.263120
3095.000000	0.261766
3094.000000	0.260431
3093.000000	0.259114
3092.000000	0.257817
3091.000000	0.256536
3090.000000	0.255267
3089.000000	0.254009
3088.000000	0.252769
3087.000000	0.251552
3086.000000	0.250356
3085.000000	0.249180
3084.000000	0.248020
3083.000000	0.246872
3082.000000	0.245733
3081.000000	0.244603
3080.000000	0.243480
3079.000000	0.242360
3078.000000	0.241235
3077.000000	0.240109
3076.000000	0.238991
3075.000000	0.237892
3074.000000	0.236818
3073.000000	0.235771
3072.000000	0.234747
3071.000000	0.233741
3070.000000	0.232750
3069.000000	0.231773
3068.000000	0.230803
3067.000000	0.229819
3066.000000	0.228803
3065.000000	0.227754
3064.000000	0.226687
3063.000000	0.225612
3062.000000	0.224531
3061.000000	0.223440
3060.000000	0.222340
3059.000000	0.221230
3058.000000	0.220110
3057.000000	0.218983
3056.000000	0.217856
3055.000000	0.216729
3054.000000	0.215607
3053.000000	0.214498
3052.000000	0.213412
3051.000000	0.212346
3050.000000	0.211294
3049.000000	0.210254
3048.000000	0.209229
3047.000000	0.208229
3046.000000	0.207255
3045.000000	0.206311
3044.000000	0.205395
3043.000000	0.204501
3042.000000	0.203622
3041.000000	0.202756
3040.000000	0.201906
3039.000000	0.201075
3038.000000	0.200267
3037.000000	0.199490
3036.000000	0.198748
3035.000000	0.198039
3034.000000	0.197354
3033.000000	0.196683
3032.000000	0.196023
3031.000000	0.195369
3030.000000	0.194725
3029.000000	0.194097
3028.000000	0.193494
3027.000000	0.192921
3026.000000	0.192384
3025.000000	0.191889
3024.000000	0.191438
3023.000000	0.191022
3022.000000	0.190637
3021.000000	0.190292
3020.000000	0.190000
3019.000000	0.189763
3018.000000	0.189584
3017.000000	0.189464
3016.000000	0.189404
3015.000000	0.189397
3014.000000	0.189433
3013.000000	0.189505
3012.000000	0.189608
3011.000000	0.189739
3010.000000	0.189898
3009.000000	0.190097
3008.000000	0.190348
3007.000000	0.190653
3006.000000	0.191011
3005.000000	0.191427
3004.000000	0.191904
3003.000000	0.192439
3002.000000	0.193035
3001.000000	0.193702
3000.000000	0.194455
2999.000000	0.195303
2998.000000	0.196252
2997.000000	0.197309
2996.000000	0.198484
2995.000000	0.199783
2994.000000	0.201208
2993.000000	0.202763
2992.000000	0.204450
2991.000000	0.206269
2990.000000	0.208225
2989.000000	0.210329
2988.000000	0.212579
2987.000000	0.214966
2986.000000	0.217476
2985.000000	0.220106
2984.000000	0.222851
2983.000000	0.225699
2982.000000	0.228639
2981.000000	0.231671
2980.000000	0.234794
2979.000000	0.238002
2978.000000	0.241285
2977.000000	0.244640
2976.000000	0.248069
2975.000000	0.251564
2974.000000	0.255115
2973.000000	0.258712
2972.000000	0.262353
2971.000000	0.266034
2970.000000	0.269743
2969.000000	0.273473
2968.000000	0.277211
2967.000000	0.280940
2966.000000	0.284638
2965.000000	0.288294
2964.000000	0.291907
2963.000000	0.295477
2962.000000	0.299004
2961.000000	0.302494
2960.000000	0.305968
2959.000000	0.309443
2958.000000	0.312928
2957.000000	0.316429
2956.000000	0.319968
2955.000000	0.323568
2954.000000	0.327248
2953.000000	0.331025
2952.000000	0.334915
2951.000000	0.338934
2950.000000	0.343090
2949.000000	0.347384
2948.000000	0.351810
2947.000000	0.356344
2946.000000	0.360949
2945.000000	0.365579
2944.000000	0.370192
2943.000000	0.374748
2942.000000	0.379204
2941.000000	0.383520
2940.000000	0.387668
2939.000000	0.391619
2938.000000	0.395334
2937.000000	0.398779
2936.000000	0.401932
2935.000000	0.404769
2934.000000	0.407255
2933.000000	0.409360
2932.000000	0.411073
2931.000000	0.412373
2930.000000	0.413216
2929.000000	0.413546
2928.000000	0.413321
2927.000000	0.412502
2926.000000	0.411039
2925.000000	0.408899
2924.000000	0.406090
2923.000000	0.402653
2922.000000	0.398655
2921.000000	0.394189
2920.000000	0.389389
2919.000000	0.384386
2918.000000	0.379291
2917.000000	0.374199
2916.000000	0.369203
2915.000000	0.364380
2914.000000	0.359763
2913.000000	0.355361
2912.000000	0.351182
2911.000000	0.347233
2910.000000	0.343504
2909.000000	0.339980
2908.000000	0.336645
2907.000000	0.333480
2906.000000	0.330460
2905.000000	0.327561
2904.000000	0.324763
2903.000000	0.322053
2902.000000	0.319412
2901.000000	0.316832
2900.000000	0.314303
2899.000000	0.311813
2898.000000	0.309342
2897.000000	0.306884
2896.000000	0.304442
2895.000000	0.302020
2894.000000	0.299611
2893.000000	0.297212
2892.000000	0.294826
2891.000000	0.292446
2890.000000	0.290058
2889.000000	0.287654
2888.000000	0.285232
2887.000000	0.282793
2886.000000	0.280335
2885.000000	0.277864
2884.000000	0.275386
2883.000000	0.272899
2882.000000	0.270394
2881.000000	0.267866
2880.000000	0.265315
2879.000000	0.262739
2878.000000	0.260124
2877.000000	0.257460
2876.000000	0.254744
2875.000000	0.251969
2874.000000	0.249131
2873.000000	0.246231
2872.000000	0.243283
2871.000000	0.240304
2870.000000	0.237328
2869.000000	0.234408
2868.000000	0.231605
2867.000000	0.228971
2866.000000	0.226547
2865.000000	0.224373
2864.000000	0.222484
2863.000000	0.220891
2862.000000	0.219581
2861.000000	0.218514
2860.000000	0.217616
2859.000000	0.216777
2858.000000	0.215863
2857.000000	0.214730
2856.000000	0.213238
2855.000000	0.211260
2854.000000	0.208709
2853.000000	0.205567
2852.000000	0.201876
2851.000000	0.197733
2850.000000	0.193272
2849.000000	0.188652
2848.000000	0.184022
2847.000000	0.179490
2846.000000	0.175127
2845.000000	0.170975
2844.000000	0.167051
2843.000000	0.163348
2842.000000	0.159849
2841.000000	0.156542
2840.000000	0.153410
2839.000000	0.150425
2838.000000	0.147565
2837.000000	0.144815
2836.000000	0.142170
2835.000000	0.139619
2834.000000	0.137158
2833.000000	0.134793
2832.000000	0.132523
2831.000000	0.130342
2830.000000	0.128245
2829.000000	0.126231
2828.000000	0.124301
2827.000000	0.122447
2826.000000	0.120671
2825.000000	0.118977
2824.000000	0.117361
2823.000000	0.115807
2822.000000	0.114302
2821.000000	0.112844
2820.000000	0.111434
2819.000000	0.110070
2818.000000	0.108755
2817.000000	0.107497
2816.000000	0.106290
2815.000000	0.105121
2814.000000	0.103981
2813.000000	0.102873
2812.000000	0.101799
2811.000000	0.100752
2810.000000	0.099732
2809.000000	0.098749
2808.000000	0.097804
2807.000000	0.096888
2806.000000	0.095996
2805.000000	0.095129
2804.000000	0.094284
2803.000000	0.093448
2802.000000	0.092620
2801.000000	0.091813
2800.000000	0.091035
2799.000000	0.090287
2798.000000	0.089564
2797.000000	0.088869
2796.000000	0.088193
2795.000000	0.087523
2794.000000	0.086857
2793.000000	0.086206
2792.000000	0.085577
2791.000000	0.084966
2790.000000	0.084375
2789.000000	0.083812
2788.000000	0.083275
2787.000000	0.082746
2786.000000	0.082218
2785.000000	0.081702
2784.000000	0.081202
2783.000000	0.080718
2782.000000	0.080250
2781.000000	0.079809
2780.000000	0.079394
2779.000000	0.078989
2778.000000	0.078585
2777.000000	0.078191
2776.000000	0.077814
2775.000000	0.077453
2774.000000	0.077112
2773.000000	0.076801
2772.000000	0.076520
2771.000000	0.076253
2770.000000	0.075984
2769.000000	0.075710
2768.000000	0.075423
2767.000000	0.075117
2766.000000	0.074789
2765.000000	0.074448
2764.000000	0.074098
2763.000000	0.073732
2762.000000	0.073352
2761.000000	0.072972
2760.000000	0.072599
2759.000000	0.072231
2758.000000	0.071870
2757.000000	0.071531
2756.000000	0.071214
2755.000000	0.070910
2754.000000	0.070611
2753.000000	0.070326
2752.000000	0.070053
2751.000000	0.069781
2750.000000	0.069506
2749.000000	0.069238
2748.000000	0.068986
2747.000000	0.068746
2746.000000	0.068516
2745.000000	0.068297
2744.000000	0.068085
2743.000000	0.067866
2742.000000	0.067636
2741.000000	0.067405
2740.000000	0.067177
2739.000000	0.066947
2738.000000	0.066716
2737.000000	0.066493
2736.000000	0.066274
2735.000000	0.066045
2734.000000	0.065800
2733.000000	0.065551
2732.000000	0.065303
2731.000000	0.065054
2730.000000	0.064802
2729.000000	0.064553
2728.000000	0.064307
2727.000000	0.064054
2726.000000	0.063790
2725.000000	0.063523
2724.000000	0.063251
2723.000000	0.062969
2722.000000	0.062680
2721.000000	0.062399
2720.000000	0.062126
2719.000000	0.061848
2718.000000	0.061555
2717.000000	0.061254
2716.000000	0.060950
2715.000000	0.060636
2714.000000	0.060316
2713.000000	0.059998
2712.000000	0.059684
2711.000000	0.059365
2710.000000	0.059039
2709.000000	0.058714
2708.000000	0.058390
2707.000000	0.058057
2706.000000	0.057718
2705.000000	0.057387
2704.000000	0.057067
2703.000000	0.056749
2702.000000	0.056428
2701.000000	0.056115
2700.000000	0.055810
2699.000000	0.055505
2698.000000	0.055199
2697.000000	0.054905
2696.000000	0.054622
2695.000000	0.054342
2694.000000	0.054061
2693.000000	0.053789
2692.000000	0.053527
2691.000000	0.053264
2690.000000	0.052999
2689.000000	0.052742
2688.000000	0.052495
2687.000000	0.052249
2686.000000	0.052004
2685.000000	0.051769
2684.000000	0.051541
2683.000000	0.051306
2682.000000	0.051063
2681.000000	0.050826
2680.000000	0.050600
2679.000000	0.050379
2678.000000	0.050157
2677.000000	0.049940
2676.000000	0.049724
2675.000000	0.049497
2674.000000	0.049263
2673.000000	0.049038
2672.000000	0.048824
2671.000000	0.048608
2670.000000	0.048389
2669.000000	0.048174
2668.000000	0.047961
2667.000000	0.047737
2666.000000	0.047506
2665.000000	0.047282
2664.000000	0.047069
2663.000000	0.046854
2662.000000	0.046631
2661.000000	0.046410
2660.000000	0.046195
2659.000000	0.045978
2658.000000	0.045755
2657.000000	0.045535
2656.000000	0.045317
2655.000000	0.045094
2654.000000	0.044871
2653.000000	0.044660
2652.000000	0.044461
2651.000000	0.044253
2650.000000	0.044031
2649.000000	0.043803
2648.000000	0.043574
2647.000000	0.043338
2646.000000	0.043098
2645.000000	0.042866
2644.000000	0.042641
2643.000000	0.042410
2642.000000	0.042165
2641.000000	0.041914
2640.000000	0.041659
2639.000000	0.041396
2638.000000	0.041130
2637.000000	0.040876
2636.000000	0.040631
2635.000000	0.040380
2634.000000	0.040116
2633.000000	0.039848
2632.000000	0.039575
2631.000000	0.039289
2630.000000	0.038991
2629.000000	0.038700
2628.000000	0.038423
2627.000000	0.038150
2626.000000	0.037877
2625.000000	0.037611
2624.000000	0.037347
2623.000000	0.037073
2622.000000	0.036793
2621.000000	0.036523
2620.000000	0.036268
2619.000000	0.036015
2618.000000	0.035761
2617.000000	0.035515
2616.000000	0.035274
2615.000000	0.035027
2614.000000	0.034770
2613.000000	0.034520
2612.000000	0.034280
2611.000000	0.034044
2610.000000	0.033811
2609.000000	0.033587
2608.000000	0.033367
2607.000000	0.033136
2606.000000	0.032895
2605.000000	0.032662
2604.000000	0.032441
2603.000000	0.032223
2602.000000	0.032007
2601.000000	0.031803
2600.000000	0.031609
2599.000000	0.031405
2598.000000	0.031191
2597.000000	0.030979
2596.000000	0.030775
2595.000000	0.030575
2594.000000	0.030381
2593.000000	0.030203
2592.000000	0.030036
2591.000000	0.029860
2590.000000	0.029670
2589.000000	0.029478
2588.000000	0.029292
2587.000000	0.029105
2586.000000	0.028922
2585.000000	0.028756
2584.000000	0.028603
2583.000000	0.028446
2582.000000	0.028277
2581.000000	0.028107
2580.000000	0.027936
2579.000000	0.027758
2578.000000	0.027581
2577.000000	0.027419
2576.000000	0.027275
2575.000000	0.027133
2574.000000	0.026987
2573.000000	0.026840
2572.000000	0.026685
2571.000000	0.026513
2570.000000	0.026332
2569.000000	0.026166
2568.000000	0.026019
2567.000000	0.025872
2566.000000	0.025719
2565.000000	0.025567
2564.000000	0.025413
2563.000000	0.025245
2562.000000	0.025065
2561.000000	0.024892
2560.000000	0.024733
2559.000000	0.024577
2558.000000	0.024423
2557.000000	0.024278
2556.000000	0.024134
2555.000000	0.023976
2554.000000	0.023803
2553.000000	0.023635
2552.000000	0.023476
2551.000000	0.023319
2550.000000	0.023165
2549.000000	0.023024
2548.000000	0.022890
2547.000000	0.022744
2546.000000	0.022585
2545.000000	0.022430
2544.000000	0.022283
2543.000000	0.022136
2542.000000	0.021988
2541.000000	0.021852
2540.000000	0.021723
2539.000000	0.021583
2538.000000	0.021430
2537.000000	0.021277
2536.000000	0.021126
2535.000000	0.020967
2534.000000	0.020807
2533.000000	0.020663
2532.000000	0.020534
2531.000000	0.020398
2530.000000	0.020249
2529.000000	0.020097
2528.000000	0.019942
2527.000000	0.019777
2526.000000	0.019608
2525.000000	0.019455
2524.000000	0.019321
2523.000000	0.019189
2522.000000	0.019055
2521.000000	0.018926
2520.000000	0.018796
2519.000000	0.018654
2518.000000	0.018505
2517.000000	0.018370
2516.000000	0.018251
2515.000000	0.018133
2514.000000	0.018015
2513.000000	0.017908
2512.000000	0.017809
2511.000000	0.017699
2510.000000	0.017577
2509.000000	0.017461
2508.000000	0.017355
2507.000000	0.017248
2506.000000	0.017142
2505.000000	0.017048
2504.000000	0.016965
2503.000000	0.016874
2502.000000	0.016773
2501.000000	0.016674
2500.000000	0.016573
2499.000000	0.016456
2498.000000	0.016323
2497.000000	0.016192
2496.000000	0.016065
2495.000000	0.015928
2494.000000	0.015779
2493.000000	0.015632
2492.000000	0.015487
2491.000000	0.015330
2490.000000	0.015163
2489.000000	0.015002
2488.000000	0.014850
2487.000000	0.014695
2486.000000	0.014542
2485.000000	0.014405
2484.000000	0.014281
2483.000000	0.014150
2482.000000	0.014011
2481.000000	0.013877
2480.000000	0.013749
2479.000000	0.013611
2478.000000	0.013465
2477.000000	0.013330
2476.000000	0.013207
2475.000000	0.013084
2474.000000	0.012956
2473.000000	0.012836
2472.000000	0.012719
2471.000000	0.012588
2470.000000	0.012445
2469.000000	0.012307
2468.000000	0.012178
2467.000000	0.012046
2466.000000	0.011916
2465.000000	0.011801
2464.000000	0.011697
2463.000000	0.011579
2462.000000	0.011445
2461.000000	0.011311
2460.000000	0.011182
2459.000000	0.011047
2458.000000	0.010910
2457.000000	0.010789
2456.000000	0.010679
2455.000000	0.010561
2454.000000	0.010431
2453.000000	0.010302
2452.000000	0.010172
2451.000000	0.010030
2450.000000	0.009884
2449.000000	0.009752
2448.000000	0.009631
2447.000000	0.009502
2446.000000	0.009361
2445.000000	0.009226
2444.000000	0.009097
2443.000000	0.008959
2442.000000	0.008814
2441.000000	0.008680
2440.000000	0.008558
2439.000000	0.008433
2438.000000	0.008300
2437.000000	0.008172
2436.000000	0.008043
2435.000000	0.007896
2434.000000	0.007737
2433.000000	0.007593
2432.000000	0.007466
2431.000000	0.007339
2430.000000	0.007208
2429.000000	0.007081
2428.000000	0.006954
2427.000000	0.006808
2426.000000	0.006649
2425.000000	0.006499
2424.000000	0.006365
2423.000000	0.006236
2422.000000	0.006110
2421.000000	0.005996
2420.000000	0.005883
2419.000000	0.005748
2418.000000	0.005592
2417.000000	0.005439
2416.000000	0.005297
2415.000000	0.005160
2414.000000	0.005032
2413.000000	0.004930
2412.000000	0.004841
2411.000000	0.004738
2410.000000	0.004613
2409.000000	0.004484
2408.000000	0.004360
2407.000000	0.004233
2406.000000	0.004112
2405.000000	0.004016
2404.000000	0.003936
2403.000000	0.003845
2402.000000	0.003734
2401.000000	0.003618
2400.000000	0.003494
2399.000000	0.003351
2398.000000	0.003201
2397.000000	0.003070
2396.000000	0.002963
2395.000000	0.002857
2394.000000	0.002746
2393.000000	0.002641
2392.000000	0.002538
2391.000000	0.002422
2390.000000	0.002306
2389.000000	0.002219
2388.000000	0.002163
2387.000000	0.002121
2386.000000	0.002090
2385.000000	0.002081
2384.000000	0.002082
2383.000000	0.002070
2382.000000	0.002048
2381.000000	0.002038
2380.000000	0.002043
2379.000000	0.002041
2378.000000	0.002026
2377.000000	0.002010
2376.000000	0.001984
2375.000000	0.001925
2374.000000	0.001840
2373.000000	0.001755
2372.000000	0.001670
2371.000000	0.001575
2370.000000	0.001485
2369.000000	0.001432
2368.000000	0.001410
2367.000000	0.001384
2366.000000	0.001349
2365.000000	0.001325
2364.000000	0.001305
2363.000000	0.001269
2362.000000	0.001231
2361.000000	0.001217
2360.000000	0.001219
2359.000000	0.001207
2358.000000	0.001191
2357.000000	0.001190
2356.000000	0.001185
2355.000000	0.001146
2354.000000	0.001081
2353.000000	0.001012
2352.000000	0.000951
2351.000000	0.000905
2350.000000	0.000894
2349.000000	0.000905
2348.000000	0.000875
2347.000000	0.000751
2346.000000	0.000559
2345.000000	0.000421
2344.000000	0.000426
2343.000000	0.000551
2342.000000	0.000722
2341.000000	0.000893
2340.000000	0.001043
2339.000000	0.001138
2338.000000	0.001162
2337.000000	0.001123
2336.000000	0.001030
2335.000000	0.000887
2334.000000	0.000726
2333.000000	0.000580
2332.000000	0.000457
2331.000000	0.000338
2330.000000	0.000245
2329.000000	0.000218
2328.000000	0.000265
2327.000000	0.000345
2326.000000	0.000412
2325.000000	0.000451
2324.000000	0.000450
2323.000000	0.000411
2322.000000	0.000360
2321.000000	0.000329
2320.000000	0.000320
2319.000000	0.000307
2318.000000	0.000303
2317.000000	0.000324
2316.000000	0.000354
2315.000000	0.000347
2314.000000	0.000302
2313.000000	0.000257
2312.000000	0.000227
2311.000000	0.000197
2310.000000	0.000162
2309.000000	0.000144
2308.000000	0.000142
2307.000000	0.000135
2306.000000	0.000123
2305.000000	0.000128
2304.000000	0.000150
2303.000000	0.000168
2302.000000	0.000177
2301.000000	0.000199
2300.000000	0.000233
2299.000000	0.000258
2298.000000	0.000276
2297.000000	0.000307
2296.000000	0.000350
2295.000000	0.000379
2294.000000	0.000392
2293.000000	0.000414
2292.000000	0.000447
2291.000000	0.000473
2290.000000	0.000491
2289.000000	0.000523
2288.000000	0.000564
2287.000000	0.000593
2286.000000	0.000609
2285.000000	0.000636
2284.000000	0.000674
2283.000000	0.000704
2282.000000	0.000726
2281.000000	0.000764
2280.000000	0.000816
2279.000000	0.000857
2278.000000	0.000886
2277.000000	0.000925
2276.000000	0.000975
2275.000000	0.001015
2274.000000	0.001048
2273.000000	0.001095
2272.000000	0.001157
2271.000000	0.001211
2270.000000	0.001259
2269.000000	0.001318
2268.000000	0.001384
2267.000000	0.001431
2266.000000	0.001463
2265.000000	0.001506
2264.000000	0.001562
2263.000000	0.001610
2262.000000	0.001652
2261.000000	0.001713
2260.000000	0.001789
2259.000000	0.001852
2258.000000	0.001897
2257.000000	0.001946
2256.000000	0.002003
2255.000000	0.002050
2254.000000	0.002096
2253.000000	0.002166
2252.000000	0.002252
2251.000000	0.002325
2250.000000	0.002377
2249.000000	0.002432
2248.000000	0.002491
2247.000000	0.002536
2246.000000	0.002576
2245.000000	0.002639
2244.000000	0.002728
2243.000000	0.002810
2242.000000	0.002879
2241.000000	0.002950
2240.000000	0.003020
2239.000000	0.003069
2238.000000	0.003102
2237.000000	0.003152
2236.000000	0.003223
2235.000000	0.003296
2234.000000	0.003368
2233.000000	0.003453
2232.000000	0.003536
2231.000000	0.003582
2230.000000	0.003590
2229.000000	0.003594
2228.000000	0.003607
2227.000000	0.003614
2226.000000	0.003621
2225.000000	0.003646
2224.000000	0.003681
2223.000000	0.003692
2222.000000	0.003677
2221.000000	0.003659
2220.000000	0.003645
2219.000000	0.003624
2218.000000	0.003606
2217.000000	0.003619
2216.000000	0.003654
2215.000000	0.003673
2214.000000	0.003672
2213.000000	0.003670
2212.000000	0.003668
2211.000000	0.003647
2210.000000	0.003618
2209.000000	0.003616
2208.000000	0.003648
2207.000000	0.003682
2206.000000	0.003707
2205.000000	0.003734
2204.000000	0.003756
2203.000000	0.003749
2202.000000	0.003727
2201.000000	0.003729
2200.000000	0.003760
2199.000000	0.003794
2198.000000	0.003827
2197.000000	0.003876
2196.000000	0.003930
2195.000000	0.003956
2194.000000	0.003956
2193.000000	0.003965
2192.000000	0.003993
2191.000000	0.004025
2190.000000	0.004060
2189.000000	0.004123
2188.000000	0.004205
2187.000000	0.004271
2186.000000	0.004315
2185.000000	0.004361
2184.000000	0.004413
2183.000000	0.004454
2182.000000	0.004495
2181.000000	0.004566
2180.000000	0.004661
2179.000000	0.004744
2178.000000	0.004807
2177.000000	0.004875
2176.000000	0.004948
2175.000000	0.005005
2174.000000	0.005050
2173.000000	0.005116
2172.000000	0.005205
2171.000000	0.005292
2170.000000	0.005373
2169.000000	0.005467
2168.000000	0.005563
2167.000000	0.005628
2166.000000	0.005670
2165.000000	0.005725
2164.000000	0.005797
2163.000000	0.005860
2162.000000	0.005912
2161.000000	0.005978
2160.000000	0.006052
2159.000000	0.006104
2158.000000	0.006133
2157.000000	0.006170
2156.000000	0.006213
2155.000000	0.006238
2154.000000	0.006251
2153.000000	0.006281
2152.000000	0.006327
2151.000000	0.006356
2150.000000	0.006368
2149.000000	0.006388
2148.000000	0.006413
2147.000000	0.006415
2146.000000	0.006399
2145.000000	0.006402
2144.000000	0.006429
2143.000000	0.006446
2142.000000	0.006451
2141.000000	0.006466
2140.000000	0.006485
2139.000000	0.006477
2138.000000	0.006446
2137.000000	0.006432
2136.000000	0.006439
2135.000000	0.006439
2134.000000	0.006431
2133.000000	0.006440
2132.000000	0.006459
2131.000000	0.006451
2130.000000	0.006416
2129.000000	0.006387
2128.000000	0.006369
2127.000000	0.006338
2126.000000	0.006302
2125.000000	0.006296
2124.000000	0.006318
2123.000000	0.006331
2122.000000	0.006327
2121.000000	0.006327
2120.000000	0.006327
2119.000000	0.006297
2118.000000	0.006248
2117.000000	0.006224
2116.000000	0.006232
2115.000000	0.006238
2114.000000	0.006233
2113.000000	0.006235
2112.000000	0.006236
2111.000000	0.006205
2110.000000	0.006151
2109.000000	0.006116
2108.000000	0.006107
2107.000000	0.006097
2106.000000	0.006083
2105.000000	0.006092
2104.000000	0.006114
2103.000000	0.006109
2102.000000	0.006076
2101.000000	0.006051
2100.000000	0.006041
2099.000000	0.006021
2098.000000	0.005997
2097.000000	0.005999
2096.000000	0.006025
2095.000000	0.006034
2094.000000	0.006017
2093.000000	0.006004
2092.000000	0.006002
2091.000000	0.005993
2090.000000	0.005983
2089.000000	0.006004
2088.000000	0.006044
2087.000000	0.006064
2086.000000	0.006063
2085.000000	0.006075
2084.000000	0.006099
2083.000000	0.006104
2082.000000	0.006094
2081.000000	0.006107
2080.000000	0.006144
2079.000000	0.006173
2078.000000	0.006188
2077.000000	0.006220
2076.000000	0.006266
2075.000000	0.006296
2074.000000	0.006314
2073.000000	0.006350
2072.000000	0.006401
2071.000000	0.006431
2070.000000	0.006440
2069.000000	0.006456
2068.000000	0.006478
2067.000000	0.006487
2066.000000	0.006506
2065.000000	0.006578
2064.000000	0.006678
2063.000000	0.006738
2062.000000	0.006751
2061.000000	0.006767
2060.000000	0.006803
2059.000000	0.006828
2058.000000	0.006838
2057.000000	0.006866
2056.000000	0.006912
2055.000000	0.006939
2054.000000	0.006946
2053.000000	0.006969
2052.000000	0.007001
2051.000000	0.007006
2050.000000	0.006986
2049.000000	0.006980
2048.000000	0.006992
2047.000000	0.006986
2046.000000	0.006964
2045.000000	0.006954
2044.000000	0.006950
2043.000000	0.006921
2042.000000	0.006883
2041.000000	0.006876
2040.000000	0.006889
2039.000000	0.006870
2038.000000	0.006820
2037.000000	0.006784
2036.000000	0.006762
2035.000000	0.006712
2034.000000	0.006632
2033.000000	0.006559
2032.000000	0.006495
2031.000000	0.006405
2030.000000	0.006297
2029.000000	0.006212
2028.000000	0.006147
2027.000000	0.006055
2026.000000	0.005936
2025.000000	0.005828
2024.000000	0.005733
2023.000000	0.005610
2022.000000	0.005459
2021.000000	0.005314
2020.000000	0.005185
2019.000000	0.005056
2018.000000	0.004959
2017.000000	0.004932
2016.000000	0.004933
2015.000000	0.004878
2014.000000	0.004760
2013.000000	0.004646
2012.000000	0.004560
2011.000000	0.004470
2010.000000	0.004377
2009.000000	0.004318
2008.000000	0.004288
2007.000000	0.004238
2006.000000	0.004163
2005.000000	0.004108
2004.000000	0.004074
2003.000000	0.004019
2002.000000	0.003944
2001.000000	0.003891
2000.000000	0.003860
1999.000000	0.003814
1998.000000	0.003758
1997.000000	0.003725
1996.000000	0.003702
1995.000000	0.003648
1994.000000	0.003589
1993.000000	0.003601
1992.000000	0.003677
1991.000000	0.003713
1990.000000	0.003675
1989.000000	0.003637
1988.000000	0.003646
1987.000000	0.003663
1986.000000	0.003658
1985.000000	0.003657
1984.000000	0.003666
1983.000000	0.003653
1982.000000	0.003624
1981.000000	0.003628
1980.000000	0.003665
1979.000000	0.003687
1978.000000	0.003688
1977.000000	0.003712
1976.000000	0.003760
1975.000000	0.003780
1974.000000	0.003767
1973.000000	0.003770
1972.000000	0.003792
1971.000000	0.003781
1970.000000	0.003726
1969.000000	0.003692
1968.000000	0.003728
1967.000000	0.003813
1966.000000	0.003909
1965.000000	0.003996
1964.000000	0.004049
1963.000000	0.004047
1962.000000	0.004031
1961.000000	0.004072
1960.000000	0.004163
1959.000000	0.004230
1958.000000	0.004249
1957.000000	0.004272
1956.000000	0.004323
1955.000000	0.004372
1954.000000	0.004419
1953.000000	0.004500
1952.000000	0.004603
1951.000000	0.004672
1950.000000	0.004694
1949.000000	0.004706
1948.000000	0.004715
1947.000000	0.004702
1946.000000	0.004703
1945.000000	0.004777
1944.000000	0.004921
1943.000000	0.005091
1942.000000	0.005265
1941.000000	0.005415
1940.000000	0.005498
1939.000000	0.005495
1938.000000	0.005458
1937.000000	0.005467
1936.000000	0.005527
1935.000000	0.005582
1934.000000	0.005629
1933.000000	0.005719
1932.000000	0.005842
1931.000000	0.005938
1930.000000	0.006005
1929.000000	0.006098
1928.000000	0.006219
1927.000000	0.006296
1926.000000	0.006309
1925.000000	0.006325
1924.000000	0.006414
1923.000000	0.006625
1922.000000	0.006979
1921.000000	0.007458
1920.000000	0.007959
1919.000000	0.008321
1918.000000	0.008497
1917.000000	0.008559
1916.000000	0.008563
1915.000000	0.008542
1914.000000	0.008542
1913.000000	0.008593
1912.000000	0.008665
1911.000000	0.008725
1910.000000	0.008827
1909.000000	0.009048
1908.000000	0.009335
1907.000000	0.009560
1906.000000	0.009695
1905.000000	0.009817
1904.000000	0.009953
1903.000000	0.010065
1902.000000	0.010160
1901.000000	0.010286
1900.000000	0.010424
1899.000000	0.010500
1898.000000	0.010515
1897.000000	0.010555
1896.000000	0.010666
1895.000000	0.010826
1894.000000	0.011022
1893.000000	0.011267
1892.000000	0.011519
1891.000000	0.011704
1890.000000	0.011866
1889.000000	0.012078
1888.000000	0.012270
1887.000000	0.012353
1886.000000	0.012399
1885.000000	0.012537
1884.000000	0.012772
1883.000000	0.013008
1882.000000	0.013215
1881.000000	0.013446
1880.000000	0.013701
1879.000000	0.013916
1878.000000	0.014099
1877.000000	0.014327
1876.000000	0.014601
1875.000000	0.014838
1874.000000	0.015060
1873.000000	0.015399
1872.000000	0.015871
1871.000000	0.016276
1870.000000	0.016454
1869.000000	0.016551
1868.000000	0.016740
1867.000000	0.016974
1866.000000	0.017208
1865.000000	0.017484
1864.000000	0.017764
1863.000000	0.017971
1862.000000	0.018139
1861.000000	0.018367
1860.000000	0.018650
1859.000000	0.018906
1858.000000	0.019144
1857.000000	0.019439
1856.000000	0.019774
1855.000000	0.020059
1854.000000	0.020307
1853.000000	0.020601
1852.000000	0.020936
1851.000000	0.021229
1850.000000	0.021479
1849.000000	0.021845
1848.000000	0.022486
1847.000000	0.023404
1846.000000	0.024428
1845.000000	0.025305
1844.000000	0.025849
1843.000000	0.026028
1842.000000	0.026030
1841.000000	0.026128
1840.000000	0.026379
1839.000000	0.026676
1838.000000	0.027044
1837.000000	0.027602
1836.000000	0.028306
1835.000000	0.029002
1834.000000	0.029701
1833.000000	0.030514
1832.000000	0.031350
1831.000000	0.031999
1830.000000	0.032561
1829.000000	0.033281
1828.000000	0.034147
1827.000000	0.035023
1826.000000	0.035840
1825.000000	0.036635
1824.000000	0.037392
1823.000000	0.038022
1822.000000	0.038607
1821.000000	0.039322
1820.000000	0.040189
1819.000000	0.041086
1818.000000	0.041976
1817.000000	0.042928
1816.000000	0.043892
1815.000000	0.044744
1814.000000	0.045525
1813.000000	0.046410
1812.000000	0.047457
1811.000000	0.048566
1810.000000	0.049701
1809.000000	0.050919
1808.000000	0.052188
1807.000000	0.053391
1806.000000	0.054556
1805.000000	0.055852
1804.000000	0.057324
1803.000000	0.058850
1802.000000	0.060359
1801.000000	0.061875
1800.000000	0.063313
1799.000000	0.064537
1798.000000	0.065682
1797.000000	0.067075
1796.000000	0.068864
1795.000000	0.070925
1794.000000	0.073083
1793.000000	0.075305
1792.000000	0.077596
1791.000000	0.079717
1790.000000	0.081519
1789.000000	0.083272
1788.000000	0.085270
1787.000000	0.087557
1786.000000	0.090085
1785.000000	0.092773
1784.000000	0.095403
1783.000000	0.097842
1782.000000	0.100297
1781.000000	0.103146
1780.000000	0.106465
1779.000000	0.109947
1778.000000	0.113419
1777.000000	0.117023
1776.000000	0.120900
1775.000000	0.125080
1774.000000	0.129619
1773.000000	0.134754
1772.000000	0.140582
1771.000000	0.146580
1770.000000	0.152375
1769.000000	0.158295
1768.000000	0.164532
1767.000000	0.170765
1766.000000	0.176818
1765.000000	0.183085
1764.000000	0.190013
1763.000000	0.197652
1762.000000	0.205789
1761.000000	0.214010
1760.000000	0.221867
1759.000000	0.229370
1758.000000	0.236984
1757.000000	0.244994
1756.000000	0.252930
1755.000000	0.260096
1754.000000	0.266631
1753.000000	0.273235
1752.000000	0.280108
1751.000000	0.286730
1750.000000	0.292641
1749.000000	0.297949
1748.000000	0.302818
1747.000000	0.307156
1746.000000	0.310992
1745.000000	0.314591
1744.000000	0.318077
1743.000000	0.321278
1742.000000	0.324053
1741.000000	0.326389
1740.000000	0.328126
1739.000000	0.329165
1738.000000	0.329834
1737.000000	0.330650
1736.000000	0.331528
1735.000000	0.331597
1734.000000	0.330673
1733.000000	0.329317
1732.000000	0.327730
1731.000000	0.326013
1730.000000	0.324352
1729.000000	0.322864
1728.000000	0.321420
1727.000000	0.319834
1726.000000	0.318174
1725.000000	0.316647
1724.000000	0.315272
1723.000000	0.313962
1722.000000	0.312884
1721.000000	0.312218
1720.000000	0.311589
1719.000000	0.310301
1718.000000	0.308670
1717.000000	0.307704
1716.000000	0.307286
1715.000000	0.306650
1714.000000	0.305659
1713.000000	0.304663
1712.000000	0.303875
1711.000000	0.303277
1710.000000	0.302978
1709.000000	0.303178
1708.000000	0.303781
1707.000000	0.304470
1706.000000	0.305364
1705.000000	0.306941
1704.000000	0.309280
1703.000000	0.312407
1702.000000	0.316366
1701.000000	0.320385
1700.000000	0.323432
1699.000000	0.325231
1698.000000	0.326798
1697.000000	0.329810
1696.000000	0.334528
1695.000000	0.339307
1694.000000	0.342955
1693.000000	0.346003
1692.000000	0.349204
1691.000000	0.352800
1690.000000	0.356839
1689.000000	0.361288
1688.000000	0.365895
1687.000000	0.370640
1686.000000	0.375859
1685.000000	0.382146
1684.000000	0.389749
1683.000000	0.396711
1682.000000	0.401701
1681.000000	0.406208
1680.000000	0.411442
1679.000000	0.417406
1678.000000	0.423849
1677.000000	0.430974
1676.000000	0.438775
1675.000000	0.446459
1674.000000	0.453216
1673.000000	0.459350
1672.000000	0.465745
1671.000000	0.472814
1670.000000	0.480688
1669.000000	0.489097
1668.000000	0.497033
1667.000000	0.503793
1666.000000	0.509875
1665.000000	0.516280
1664.000000	0.523374
1663.000000	0.530729
1662.000000	0.537754
1661.000000	0.544199
1660.000000	0.550171
1659.000000	0.555671
1658.000000	0.560814
1657.000000	0.565964
1656.000000	0.571562
1655.000000	0.577384
1654.000000	0.583434
1653.000000	0.590415
1652.000000	0.596167
1651.000000	0.599045
1650.000000	0.600825
1649.000000	0.603089
1648.000000	0.606689
1647.000000	0.611624
1646.000000	0.616758
1645.000000	0.620993
1644.000000	0.624461
1643.000000	0.627550
1642.000000	0.630623
1641.000000	0.634140
1640.000000	0.638125
1639.000000	0.642113
1638.000000	0.646045
1637.000000	0.650651
1636.000000	0.656484
1635.000000	0.662103
1634.000000	0.665741
1633.000000	0.668071
1632.000000	0.670345
1631.000000	0.672742
1630.000000	0.675009
1629.000000	0.677215
1628.000000	0.679476
1627.000000	0.681444
1626.000000	0.682836
1625.000000	0.683898
1624.000000	0.684816
1623.000000	0.685278
1622.000000	0.684966
1621.000000	0.684178
1620.000000	0.683358
1619.000000	0.682276
1618.000000	0.680325
1617.000000	0.677487
1616.000000	0.674111
1615.000000	0.670016
1614.000000	0.665034
1613.000000	0.659436
1612.000000	0.653397
1611.000000	0.646752
1610.000000	0.639428
1609.000000	0.631754
1608.000000	0.624015
1607.000000	0.616074
1606.000000	0.607653
1605.000000	0.598768
1604.000000	0.589598
1603.000000	0.580128
1602.000000	0.570294
1601.000000	0.560253
1600.000000	0.550206
1599.000000	0.540109
1598.000000	0.529784
1597.000000	0.519243
1596.000000	0.508632
1595.000000	0.497960
1594.000000	0.487097
1593.000000	0.475978
1592.000000	0.464648
1591.000000	0.453105
1590.000000	0.441306
1589.000000	0.429334
1588.000000	0.417362
1587.000000	0.405501
1586.000000	0.393766
1585.000000	0.382202
1584.000000	0.370944
1583.000000	0.360068
1582.000000	0.349530
1581.000000	0.339431
1580.000000	0.330092
1579.000000	0.321571
1578.000000	0.313252
1577.000000	0.304355
1576.000000	0.295137
1575.000000	0.286705
1574.000000	0.279673
1573.000000	0.273837
1572.000000	0.268547
1571.000000	0.263010
1570.000000	0.256984
1569.000000	0.250991
1568.000000	0.245570
1567.000000	0.240929
1566.000000	0.236884
1565.000000	0.233102
1564.000000	0.229779
1563.000000	0.227588
1562.000000	0.226946
1561.000000	0.226958
1560.000000	0.225087
1559.000000	0.222449
1558.000000	0.220710
1557.000000	0.218434
1556.000000	0.216287
1555.000000	0.214885
1554.000000	0.214015
1553.000000	0.213252
1552.000000	0.212647
1551.000000	0.212485
1550.000000	0.212814
1549.000000	0.213327
1548.000000	0.213811
1547.000000	0.214452
1546.000000	0.215287
1545.000000	0.216164
1544.000000	0.217114
1543.000000	0.218191
1542.000000	0.219114
1541.000000	0.219886
1540.000000	0.221377
1539.000000	0.223289
1538.000000	0.224652
1537.000000	0.225889
1536.000000	0.227562
1535.000000	0.229826
1534.000000	0.232603
1533.000000	0.235690
1532.000000	0.238557
1531.000000	0.241113
1530.000000	0.243847
1529.000000	0.246940
1528.000000	0.250294
1527.000000	0.253919
1526.000000	0.257739
1525.000000	0.261416
1524.000000	0.264911
1523.000000	0.268770
1522.000000	0.273769
1521.000000	0.279694
1520.000000	0.285071
1519.000000	0.289341
1518.000000	0.293255
1517.000000	0.297378
1516.000000	0.301295
1515.000000	0.304154
1514.000000	0.305761
1513.000000	0.306239
1512.000000	0.305579
1511.000000	0.304030
1510.000000	0.302028
1509.000000	0.299514
1508.000000	0.296025
1507.000000	0.292086
1506.000000	0.287346
1505.000000	0.281019
1504.000000	0.274457
1503.000000	0.268503
1502.000000	0.263094
1501.000000	0.257942
1500.000000	0.252789
1499.000000	0.247477
1498.000000	0.242064
1497.000000	0.236824
1496.000000	0.231958
1495.000000	0.227617
1494.000000	0.224132
1493.000000	0.221688
1492.000000	0.219938
1491.000000	0.218423
1490.000000	0.217424
1489.000000	0.217424
1488.000000	0.218154
1487.000000	0.219201
1486.000000	0.220597
1485.000000	0.222520
1484.000000	0.225024
1483.000000	0.228135
1482.000000	0.232004
1481.000000	0.236712
1480.000000	0.242053
1479.000000	0.247881
1478.000000	0.254351
1477.000000	0.261598
1476.000000	0.269455
1475.000000	0.277877
1474.000000	0.287393
1473.000000	0.298583
1472.000000	0.310645
1471.000000	0.321756
1470.000000	0.331474
1469.000000	0.340653
1468.000000	0.349802
1467.000000	0.358812
1466.000000	0.367355
1465.000000	0.375003
1464.000000	0.381131
1463.000000	0.385523
1462.000000	0.388898
1461.000000	0.392113
1460.000000	0.395535
1459.000000	0.399269
1458.000000	0.403663
1457.000000	0.408565
1456.000000	0.412170
1455.000000	0.413596
1454.000000	0.414064
1453.000000	0.414551
1452.000000	0.415223
1451.000000	0.415928
1450.000000	0.416621
1449.000000	0.417267
1448.000000	0.417748
1447.000000	0.418030
1446.000000	0.418224
1445.000000	0.418517
1444.000000	0.419064
1443.000000	0.419894
1442.000000	0.421008
1441.000000	0.422468
1440.000000	0.424436
1439.000000	0.427062
1438.000000	0.430182
1437.000000	0.433230
1436.000000	0.435509
1435.000000	0.436825
1434.000000	0.437876
1433.000000	0.439432
1432.000000	0.441575
1431.000000	0.443971
1430.000000	0.446393
1429.000000	0.448685
1428.000000	0.450566
1427.000000	0.451942
1426.000000	0.453008
1425.000000	0.453917
1424.000000	0.454694
1423.000000	0.455329
1422.000000	0.455933
1421.000000	0.456438
1420.000000	0.456265
1419.000000	0.455094
1418.000000	0.453250
1417.000000	0.451048
1416.000000	0.448697
1415.000000	0.446376
1414.000000	0.444209
1413.000000	0.442252
1412.000000	0.440499
1411.000000	0.438928
1410.000000	0.437537
1409.000000	0.436295
1408.000000	0.435124
1407.000000	0.434023
1406.000000	0.433070
1405.000000	0.432272
1404.000000	0.431513
1403.000000	0.430761
1402.000000	0.430203
1401.000000	0.429925
1400.000000	0.429787
1399.000000	0.429732
1398.000000	0.429863
1397.000000	0.430306
1396.000000	0.431145
1395.000000	0.432336
1394.000000	0.433613
1393.000000	0.434729
1392.000000	0.435860
1391.000000	0.437431
1390.000000	0.439676
1389.000000	0.442505
1388.000000	0.445650
1387.000000	0.448857
1386.000000	0.451924
1385.000000	0.454810
1384.000000	0.457680
1383.000000	0.460667
1382.000000	0.463732
1381.000000	0.466727
1380.000000	0.469511
1379.000000	0.472005
1378.000000	0.474146
1377.000000	0.475876
1376.000000	0.477219
1375.000000	0.478360
1374.000000	0.479430
1373.000000	0.480170
1372.000000	0.480224
1371.000000	0.479595
1370.000000	0.478497
1369.000000	0.477017
1368.000000	0.475109
1367.000000	0.472794
1366.000000	0.470216
1365.000000	0.467460
1364.000000	0.464523
1363.000000	0.461521
1362.000000	0.458570
1361.000000	0.455537
1360.000000	0.452318
1359.000000	0.449091
1358.000000	0.446120
1357.000000	0.443506
1356.000000	0.441221
1355.000000	0.439293
1354.000000	0.437803
1353.000000	0.436731
1352.000000	0.435979
1351.000000	0.435571
1350.000000	0.435633
1349.000000	0.436235
1348.000000	0.437353
1347.000000	0.438984
1346.000000	0.441166
1345.000000	0.443848
1344.000000	0.446892
1343.000000	0.450229
1342.000000	0.453912
1341.000000	0.458027
1340.000000	0.462610
1339.000000	0.467570
1338.000000	0.472669
1337.000000	0.477663
1336.000000	0.482448
1335.000000	0.487069
1334.000000	0.491618
1333.000000	0.496116
1332.000000	0.500511
1331.000000	0.504771
1330.000000	0.508924
1329.000000	0.512977
1328.000000	0.516907
1327.000000	0.520753
1326.000000	0.524647
1325.000000	0.528707
1324.000000	0.532958
1323.000000	0.537426
1322.000000	0.542182
1321.000000	0.547225
1320.000000	0.552351
1319.000000	0.557181
1318.000000	0.561196
1317.000000	0.563767
1316.000000	0.564273
1315.000000	0.562360
1314.000000	0.558100
1313.000000	0.551839
1312.000000	0.544065
1311.000000	0.535392
1310.000000	0.526462
1309.000000	0.517750
1308.000000	0.509499
1307.000000	0.501867
1306.000000	0.494984
1305.000000	0.488861
1304.000000	0.483401
1303.000000	0.478546
1302.000000	0.474284
1301.000000	0.470544
1300.000000	0.467223
1299.000000	0.464314
1298.000000	0.461913
1297.000000	0.460090
1296.000000	0.458840
1295.000000	0.458177
1294.000000	0.458115
1293.000000	0.458599
1292.000000	0.459536
1291.000000	0.460900
1290.000000	0.462730
1289.000000	0.464998
1288.000000	0.467585
1287.000000	0.470369
1286.000000	0.473263
1285.000000	0.476156
1284.000000	0.478900
1283.000000	0.481403
1282.000000	0.483659
1281.000000	0.485693
1280.000000	0.487551
1279.000000	0.489344
1278.000000	0.491205
1277.000000	0.493158
1276.000000	0.495120
1275.000000	0.497043
1274.000000	0.498953
1273.000000	0.500834
1272.000000	0.502597
1271.000000	0.504187
1270.000000	0.505629
1269.000000	0.506924
1268.000000	0.508008
1267.000000	0.508844
1266.000000	0.509474
1265.000000	0.509929
1264.000000	0.510187
1263.000000	0.510264
1262.000000	0.510233
1261.000000	0.510134
1260.000000	0.509945
1259.000000	0.509676
1258.000000	0.509395
1257.000000	0.509130
1256.000000	0.508855
1255.000000	0.508599
1254.000000	0.508459
1253.000000	0.508477
1252.000000	0.508602
1251.000000	0.508786
1250.000000	0.509031
1249.000000	0.509308
1248.000000	0.509539
1247.000000	0.509681
1246.000000	0.509731
1245.000000	0.509645
1244.000000	0.509362
1243.000000	0.508938
1242.000000	0.508504
1241.000000	0.508077
1240.000000	0.507521
1239.000000	0.506727
1238.000000	0.505718
1237.000000	0.504532
1236.000000	0.503136
1235.000000	0.501502
1234.000000	0.499649
1233.000000	0.497577
1232.000000	0.495232
1231.000000	0.492596
1230.000000	0.489710
1229.000000	0.486595
1228.000000	0.483249
1227.000000	0.479727
1226.000000	0.476124
1225.000000	0.472473
1224.000000	0.468750
1223.000000	0.464987
1222.000000	0.461278
1221.000000	0.457668
1220.000000	0.454144
1219.000000	0.450728
1218.000000	0.447477
1217.000000	0.444392
1216.000000	0.441429
1215.000000	0.438583
1214.000000	0.435889
1213.000000	0.433358
1212.000000	0.430991
1211.000000	0.428841
1210.000000	0.426954
1209.000000	0.425285
1208.000000	0.423728
1207.000000	0.422232
1206.000000	0.420792
1205.000000	0.419356
1204.000000	0.417845
1203.000000	0.416235
1202.000000	0.414542
1201.000000	0.412748
1200.000000	0.410835
1199.000000	0.408854
1198.000000	0.406898
1197.000000	0.405028
1196.000000	0.403314
1195.000000	0.401891
1194.000000	0.400897
1193.000000	0.400384
1192.000000	0.400373
1191.000000	0.400949
1190.000000	0.402204
1189.000000	0.404147
1188.000000	0.406746
1187.000000	0.410007
1186.000000	0.413960
1185.000000	0.418561
1184.000000	0.423767
1183.000000	0.429664
1182.000000	0.436434
1181.000000	0.444191
1180.000000	0.452850
1179.000000	0.462236
1178.000000	0.472235
1177.000000	0.482836
1176.000000	0.494140
1175.000000	0.506300
1174.000000	0.519447
1173.000000	0.533594
1172.000000	0.548635
1171.000000	0.564480
1170.000000	0.581110
1169.000000	0.598462
1168.000000	0.616313
1167.000000	0.634350
1166.000000	0.652269
1165.000000	0.669748
1164.000000	0.686352
1163.000000	0.701652
1162.000000	0.715465
1161.000000	0.727745
1160.000000	0.738423
1159.000000	0.747504
1158.000000	0.755145
1157.000000	0.761538
1156.000000	0.766646
1155.000000	0.770399
1154.000000	0.772978
1153.000000	0.774618
1152.000000	0.775407
1151.000000	0.775384
1150.000000	0.774755
1149.000000	0.773722
1148.000000	0.772263
1147.000000	0.770332
1146.000000	0.768074
1145.000000	0.765644
1144.000000	0.763032
1143.000000	0.760251
1142.000000	0.757528
1141.000000	0.755092
1140.000000	0.752982
1139.000000	0.751247
1138.000000	0.750165
1137.000000	0.750006
1136.000000	0.750810
1135.000000	0.752555
1134.000000	0.755333
1133.000000	0.759230
1132.000000	0.764105
1131.000000	0.769756
1130.000000	0.776146
1129.000000	0.783232
1128.000000	0.790790
1127.000000	0.798571
1126.000000	0.806535
1125.000000	0.814689
1124.000000	0.822852
1123.000000	0.830864
1122.000000	0.838850
1121.000000	0.847000
1120.000000	0.855248
1119.000000	0.863470
1118.000000	0.871802
1117.000000	0.880446
1116.000000	0.889314
1115.000000	0.898196
1114.000000	0.907092
1113.000000	0.915994
1112.000000	0.924549
1111.000000	0.932349
1110.000000	0.939352
1109.000000	0.945682
1108.000000	0.951178
1107.000000	0.955630
1106.000000	0.959223
1105.000000	0.962212
1104.000000	0.964493
1103.000000	0.965893
1102.000000	0.966658
1101.000000	0.967200
1100.000000	0.967583
1099.000000	0.967785
1098.000000	0.968134
1097.000000	0.969037
1096.000000	0.970531
1095.000000	0.972546
1094.000000	0.975321
1093.000000	0.979124
1092.000000	0.983842
1091.000000	0.989270
1090.000000	0.995583
1089.000000	1.002998
1088.000000	1.011248
1087.000000	1.019903
1086.000000	1.028925
1085.000000	1.038423
1084.000000	1.048110
1083.000000	1.057570
1082.000000	1.066822
1081.000000	1.075983
1080.000000	1.084608
1079.000000	1.092026
1078.000000	1.098064
1077.000000	1.102730
1076.000000	1.105672
1075.000000	1.106599
1074.000000	1.105930
1073.000000	1.104323
1072.000000	1.101923
1071.000000	1.098870
1070.000000	1.095941
1069.000000	1.094011
1068.000000	1.093267
1067.000000	1.093611
1066.000000	1.095337
1065.000000	1.098777
1064.000000	1.103641
1063.000000	1.109352
1062.000000	1.115768
1061.000000	1.122855
1060.000000	1.130082
1059.000000	1.136874
1058.000000	1.143320
1057.000000	1.149711
1056.000000	1.155745
1055.000000	1.160959
1054.000000	1.165536
1053.000000	1.169875
1052.000000	1.173739
1051.000000	1.176738
1050.000000	1.179220
1049.000000	1.181728
1048.000000	1.184095
1047.000000	1.185999
1046.000000	1.187861
1045.000000	1.190256
1044.000000	1.192989
1043.000000	1.195658
1042.000000	1.198615
1041.000000	1.202448
1040.000000	1.206954
1039.000000	1.211527
1038.000000	1.216109
1037.000000	1.220839
1036.000000	1.225205
1035.000000	1.228516
1034.000000	1.230844
1033.000000	1.232586
1032.000000	1.233528
1031.000000	1.233267
1030.000000	1.232138
1029.000000	1.230684
1028.000000	1.228787
1027.000000	1.226100
1026.000000	1.222850
1025.000000	1.219363
1024.000000	1.215314
1023.000000	1.210340
1022.000000	1.204807
1021.000000	1.199140
1020.000000	1.193009
1019.000000	1.185922
1018.000000	1.178070
1017.000000	1.169818
1016.000000	1.160899
1015.000000	1.150970
1014.000000	1.140302
1013.000000	1.129312
1012.000000	1.117889
1011.000000	1.105826
1010.000000	1.093430
1009.000000	1.081041
1008.000000	1.068489
1007.000000	1.055561
1006.000000	1.042528
1005.000000	1.029741
1004.000000	1.017061
1003.000000	1.004172
1002.000000	0.991079
1001.000000	0.977905
1000.000000	0.964602
999.000000	0.951162
998.000000	0.937793
997.000000	0.924604
996.000000	0.911362
995.000000	0.897843
994.000000	0.884041
993.000000	0.869856
992.000000	0.854972
991.000000	0.839175
990.000000	0.822572
989.000000	0.805267
988.000000	0.787112
987.000000	0.768018
986.000000	0.748059
985.000000	0.727310
984.000000	0.705762
983.000000	0.683497
982.000000	0.660804
981.000000	0.637924
980.000000	0.615019
979.000000	0.592324
978.000000	0.570110
977.000000	0.548540
976.000000	0.527671
975.000000	0.507627
974.000000	0.488562
973.000000	0.470508
972.000000	0.453406
971.000000	0.437252
970.000000	0.422064
969.000000	0.407767
968.000000	0.394259
967.000000	0.381499
966.000000	0.369452
965.000000	0.358018
964.000000	0.347096
963.000000	0.336675
962.000000	0.326721
961.000000	0.317122
960.000000	0.307806
959.000000	0.298827
958.000000	0.290243
957.000000	0.282004
956.000000	0.274054
955.000000	0.266434
954.000000	0.259176
953.000000	0.252235
952.000000	0.245576
951.000000	0.239247
950.000000	0.233300
949.000000	0.227726
948.000000	0.222577
947.000000	0.217989
946.000000	0.214018
945.000000	0.210576
944.000000	0.207554
943.000000	0.204922
942.000000	0.202609
941.000000	0.200441
940.000000	0.198286
939.000000	0.196140
938.000000	0.194011
937.000000	0.191848
936.000000	0.189630
935.000000	0.187427
934.000000	0.185276
933.000000	0.183146
932.000000	0.181056
931.000000	0.179116
930.000000	0.177368
929.000000	0.175728
928.000000	0.174131
927.000000	0.172597
926.000000	0.171098
925.000000	0.169496
924.000000	0.167700
923.000000	0.165739
922.000000	0.163628
921.000000	0.161300
920.000000	0.158721
919.000000	0.155956
918.000000	0.153040
917.000000	0.149916
916.000000	0.146570
915.000000	0.143072
914.000000	0.139434
913.000000	0.135569
912.000000	0.131441
911.000000	0.127158
910.000000	0.122804
909.000000	0.118382
908.000000	0.113949
907.000000	0.109684
906.000000	0.105719
905.000000	0.102074
904.000000	0.098783
903.000000	0.095939
902.000000	0.093559
901.000000	0.091523
900.000000	0.089733
899.000000	0.088154
898.000000	0.086664
897.000000	0.085043
896.000000	0.083178
895.000000	0.081123
894.000000	0.078915
893.000000	0.076483
892.000000	0.073803
891.000000	0.070963
890.000000	0.068001
889.000000	0.064844
888.000000	0.061476
887.000000	0.058008
886.000000	0.054523
885.000000	0.051020
884.000000	0.047567
883.000000	0.044320
882.000000	0.041343
881.000000	0.038550
880.000000	0.035914
879.000000	0.033547
878.000000	0.031504
877.000000	0.029713
876.000000	0.028146
875.000000	0.026877
874.000000	0.025920
873.000000	0.025148
872.000000	0.024480
871.000000	0.023955
870.000000	0.023581
869.000000	0.023287
868.000000	0.023072
867.000000	0.023023
866.000000	0.023115
865.000000	0.023185
864.000000	0.023127
863.000000	0.022969
862.000000	0.022695
861.000000	0.022211
860.000000	0.021525
859.000000	0.020786
858.000000	0.020069
857.000000	0.019291
856.000000	0.018382
855.000000	0.017382
854.000000	0.016296
853.000000	0.015050
852.000000	0.013652
851.000000	0.012219
850.000000	0.010794
849.000000	0.009310
848.000000	0.007790
847.000000	0.006387
846.000000	0.005184
845.000000	0.004125
844.000000	0.003214
843.000000	0.002591
842.000000	0.002341
841.000000	0.002402
840.000000	0.002726
839.000000	0.003345
838.000000	0.004226
837.000000	0.005218
836.000000	0.006217
835.000000	0.007192
834.000000	0.008021
833.000000	0.008461
832.000000	0.008377
831.000000	0.007840
830.000000	0.006953
829.000000	0.005779
828.000000	0.004498
827.000000	0.003423
826.000000	0.002749
825.000000	0.002431
824.000000	0.002386
823.000000	0.002608
822.000000	0.003033
821.000000	0.003515
820.000000	0.004005
819.000000	0.004587
818.000000	0.005279
817.000000	0.005971
816.000000	0.006611
815.000000	0.007263
814.000000	0.007928
813.000000	0.008516
812.000000	0.009056
811.000000	0.009753
810.000000	0.010764
809.000000	0.012082
808.000000	0.013696
807.000000	0.015667
806.000000	0.018001
805.000000	0.020593
804.000000	0.023384
803.000000	0.026413
802.000000	0.029649
801.000000	0.032929
800.000000	0.036118
799.000000	0.039152
798.000000	0.041883
797.000000	0.044102
796.000000	0.045783
795.000000	0.047172
794.000000	0.048572
793.000000	0.050207
792.000000	0.052337
791.000000	0.055318
790.000000	0.059431
789.000000	0.064824
788.000000	0.071676
787.000000	0.080221
786.000000	0.090501
785.000000	0.102128
784.000000	0.114271
783.000000	0.125680
782.000000	0.134764
781.000000	0.140027
780.000000	0.140798
779.000000	0.137616
778.000000	0.131813
777.000000	0.124891
776.000000	0.118125
775.000000	0.112369
774.000000	0.107914
773.000000	0.104582
772.000000	0.102067
771.000000	0.100161
770.000000	0.098699
769.000000	0.097532
768.000000	0.096644
767.000000	0.096099
766.000000	0.095808
765.000000	0.095484
764.000000	0.094896
763.000000	0.093979
762.000000	0.092661
761.000000	0.090779
760.000000	0.088268
759.000000	0.085254
758.000000	0.081862
757.000000	0.078096
756.000000	0.073981
755.000000	0.069650
754.000000	0.065210
753.000000	0.060689
752.000000	0.056180
751.000000	0.051861
750.000000	0.047801
749.000000	0.043918
748.000000	0.040183
747.000000	0.036685
746.000000	0.033447
745.000000	0.030365
744.000000	0.027407
743.000000	0.024708
742.000000	0.022372
741.000000	0.020362
740.000000	0.018638
739.000000	0.017244
738.000000	0.016186
737.000000	0.015402
736.000000	0.014913
735.000000	0.014837
734.000000	0.015187
733.000000	0.015835
732.000000	0.016711
731.000000	0.017866
730.000000	0.019277
729.000000	0.020791
728.000000	0.022335
727.000000	0.024017
726.000000	0.025940
725.000000	0.028074
724.000000	0.030371
723.000000	0.032856
722.000000	0.035523
721.000000	0.038281
720.000000	0.041094
719.000000	0.044015
718.000000	0.047044
717.000000	0.050078
716.000000	0.053076
715.000000	0.056096
714.000000	0.059097
713.000000	0.061894
712.000000	0.064374
711.000000	0.066612
710.000000	0.068676
709.000000	0.070489
708.000000	0.071989
707.000000	0.073242
706.000000	0.074329
705.000000	0.075245
704.000000	0.076008
703.000000	0.076723
702.000000	0.077451
701.000000	0.078177
700.000000	0.078976
699.000000	0.080036
698.000000	0.081416
697.000000	0.082945
696.000000	0.084426
695.000000	0.085802
694.000000	0.087004
693.000000	0.087856
692.000000	0.088273
691.000000	0.088408
690.000000	0.088480
689.000000	0.088598
688.000000	0.088851
687.000000	0.089368
686.000000	0.090175
685.000000	0.091151
684.000000	0.092262
683.000000	0.093645
682.000000	0.095367
681.000000	0.097308
680.000000	0.099395
679.000000	0.101740
678.000000	0.104390
677.000000	0.107163
676.000000	0.109908
675.000000	0.112623
674.000000	0.115326
673.000000	0.117916
672.000000	0.120197
671.000000	0.122028
670.000000	0.123427
669.000000	0.124585
668.000000	0.125790
667.000000	0.127260
666.000000	0.128824
665.000000	0.130069
664.000000	0.130870
663.000000	0.131370
662.000000	0.131673
661.000000	0.131715
660.000000	0.131478
659.000000	0.131142
658.000000	0.130889
657.000000	0.130758
656.000000	0.130784
655.000000	0.131025
654.000000	0.131483
653.000000	0.132130
652.000000	0.132970
651.000000	0.134030
650.000000	0.135279
649.000000	0.136649
648.000000	0.138153
647.000000	0.139853
646.000000	0.141703
645.000000	0.143531
644.000000	0.145215
643.000000	0.146778
642.000000	0.148277
641.000000	0.149724
640.000000	0.151132
639.000000	0.152535
638.000000	0.153931
637.000000	0.155283
636.000000	0.156605
635.000000	0.157951
634.000000	0.159303
633.000000	0.160579
632.000000	0.161798
631.000000	0.163117
630.000000	0.164650
629.000000	0.166356
628.000000	0.168168
627.000000	0.170111
626.000000	0.172244
625.000000	0.174552
624.000000	0.176988
623.000000	0.179529
622.000000	0.182131
621.000000	0.184692
620.000000	0.187089
619.000000	0.189205
618.000000	0.190931
617.000000	0.192232
616.000000	0.193251
615.000000	0.194226
614.000000	0.195266
613.000000	0.196291
612.000000	0.197175
611.000000	0.197867
610.000000	0.198306
609.000000	0.198383
608.000000	0.198064
607.000000	0.197466
606.000000	0.196756
605.000000	0.196021
604.000000	0.195297
603.000000	0.194626
602.000000	0.193992
601.000000	0.193327
600.000000	0.192658
599.000000	0.192123
598.000000	0.191780
597.000000	0.191543
596.000000	0.191365
595.000000	0.191330
594.000000	0.191490
593.000000	0.191763
592.000000	0.192089
591.000000	0.192559
590.000000	0.193288
589.000000	0.194319
588.000000	0.195680
587.000000	0.197405
586.000000	0.199420
585.000000	0.201541
584.000000	0.203659
583.000000	0.205791
582.000000	0.207899
581.000000	0.209819
580.000000	0.211451
579.000000	0.212855
578.000000	0.214090
577.000000	0.215063
576.000000	0.215638
575.000000	0.215804
574.000000	0.215631
573.000000	0.215181
572.000000	0.214523
571.000000	0.213746
570.000000	0.212903
569.000000	0.212006
568.000000	0.211150
567.000000	0.210526
566.000000	0.210218
565.000000	0.210127
564.000000	0.210186
563.000000	0.210454
562.000000	0.210890
561.000000	0.211235
560.000000	0.211244
559.000000	0.210936
558.000000	0.210485
557.000000	0.209998
556.000000	0.209542
555.000000	0.209211
554.000000	0.209041
553.000000	0.208968
552.000000	0.209004
551.000000	0.209290
550.000000	0.209890
549.000000	0.210715
548.000000	0.211774
547.000000	0.213262
546.000000	0.215302
545.000000	0.217750
544.000000	0.220462
543.000000	0.223510
542.000000	0.227012
541.000000	0.230912
540.000000	0.235072
539.000000	0.239404
538.000000	0.243795
537.000000	0.248026
536.000000	0.251864
535.000000	0.255149
534.000000	0.257767
533.000000	0.259687
532.000000	0.261053
531.000000	0.262076
530.000000	0.262836
529.000000	0.263245
528.000000	0.263254
527.000000	0.262962
526.000000	0.262489
525.000000	0.261866
524.000000	0.261104
523.000000	0.260285
522.000000	0.259426
521.000000	0.258356
520.000000	0.256892
519.000000	0.255014
518.000000	0.252775
517.000000	0.250159
516.000000	0.247125
515.000000	0.243708
514.000000	0.239934
513.000000	0.235743
512.000000	0.231148
511.000000	0.226344
510.000000	0.221523
509.000000	0.216688
508.000000	0.211820
507.000000	0.207101
506.000000	0.202763
505.000000	0.198871
504.000000	0.195375
503.000000	0.192202
502.000000	0.189148
501.000000	0.185968
500.000000	0.182781
499.000000	0.180088
498.000000	0.178187
497.000000	0.176825
496.000000	0.175652
495.000000	0.174680
494.000000	0.174078
493.000000	0.173833
492.000000	0.173890
491.000000	0.174339
490.000000	0.175221
489.000000	0.176402
488.000000	0.177831
487.000000	0.179619
486.000000	0.181741
485.000000	0.183971
484.000000	0.186273
483.000000	0.188859
482.000000	0.191673
481.000000	0.194274
480.000000	0.196398
479.000000	0.198246
478.000000	0.199975
477.000000	0.201336
476.000000	0.202085
475.000000	0.202361
474.000000	0.202411
473.000000	0.202228
472.000000	0.201720
471.000000	0.200826
470.000000	0.199381
469.000000	0.197133
468.000000	0.193992
467.000000	0.190243
466.000000	0.186203
465.000000	0.181920
464.000000	0.177413
463.000000	0.172923
462.000000	0.168634
461.000000	0.164424
460.000000	0.160127
459.000000	0.155751
458.000000	0.151251
457.000000	0.146427
456.000000	0.141298
455.000000	0.136388
454.000000	0.132010
453.000000	0.127833
452.000000	0.123657
451.000000	0.119854
450.000000	0.116663
449.000000	0.113682
448.000000	0.110615
447.000000	0.107861
446.000000	0.105705
445.000000	0.103646
444.000000	0.101146
443.000000	0.098462
442.000000	0.096075
441.000000	0.093871
440.000000	0.091671
439.000000	0.089844
438.000000	0.088593
437.000000	0.087364
436.000000	0.085627
435.000000	0.083638
434.000000	0.081727
433.000000	0.079631
432.000000	0.077207
431.000000	0.074993
430.000000	0.073244
429.000000	0.071228
428.000000	0.068348
427.000000	0.065200
426.000000	0.062598
425.000000	0.060290
424.000000	0.057660
423.000000	0.054956
422.000000	0.052691
421.000000	0.050487
420.000000	0.047580
419.000000	0.044382
418.000000	0.041544
417.000000	0.037970
416.000000	0.033433
415.000000	0.029390
414.000000	0.026528
413.000000	0.023779
412.000000	0.020157
411.000000	0.016305
410.000000	0.012978
409.000000	0.009533
408.000000	0.005428
407.000000	0.001770
406.000000	-0.000332
405.000000	-0.001457
404.000000	-0.002131
403.000000	-0.001310
402.000000	0.001616
401.000000	0.005166
400.000000	0.007917
