PE IR       SUBTECH     SPECTRUM    ASCII       PEDS        4.00        
   -1
G001-100C.asc
17/02/23
10:59:45.00
17/02/23
11:00:33.00
Administrator
Sample 125 By Administrator Date Thursday, February 23 2017
400.000000
#HDR
-1
-1
#GR
cm-1
A
1.0
0.0
4000.000000
-1.000000
3601
8
1.237019
-0.001836
#DATA
4000.000000	0.004935
3999.000000	0.005052
3998.000000	0.005173
3997.000000	0.005300
3996.000000	0.005431
3995.000000	0.005565
3994.000000	0.005703
3993.000000	0.005844
3992.000000	0.005985
3991.000000	0.006121
3990.000000	0.006244
3989.000000	0.006358
3988.000000	0.006469
3987.000000	0.006587
3986.000000	0.006712
3985.000000	0.006842
3984.000000	0.006967
3983.000000	0.007079
3982.000000	0.007180
3981.000000	0.007279
3980.000000	0.007390
3979.000000	0.007524
3978.000000	0.007681
3977.000000	0.007850
3976.000000	0.008014
3975.000000	0.008163
3974.000000	0.008295
3973.000000	0.008412
3972.000000	0.008521
3971.000000	0.008622
3970.000000	0.008716
3969.000000	0.008803
3968.000000	0.008887
3967.000000	0.008979
3966.000000	0.009092
3965.000000	0.009232
3964.000000	0.009393
3963.000000	0.009560
3962.000000	0.009721
3961.000000	0.009871
3960.000000	0.010008
3959.000000	0.010132
3958.000000	0.010246
3957.000000	0.010353
3956.000000	0.010460
3955.000000	0.010577
3954.000000	0.010718
3953.000000	0.010893
3952.000000	0.011109
3951.000000	0.011352
3950.000000	0.011603
3949.000000	0.011838
3948.000000	0.012051
3947.000000	0.012247
3946.000000	0.012437
3945.000000	0.012610
3944.000000	0.012738
3943.000000	0.012809
3942.000000	0.012841
3941.000000	0.012861
3940.000000	0.012880
3939.000000	0.012899
3938.000000	0.012932
3937.000000	0.013022
3936.000000	0.013208
3935.000000	0.013488
3934.000000	0.013817
3933.000000	0.014130
3932.000000	0.014382
3931.000000	0.014555
3930.000000	0.014668
3929.000000	0.014754
3928.000000	0.014839
3927.000000	0.014926
3926.000000	0.015013
3925.000000	0.015108
3924.000000	0.015237
3923.000000	0.015424
3922.000000	0.015670
3921.000000	0.015947
3920.000000	0.016214
3919.000000	0.016436
3918.000000	0.016593
3917.000000	0.016672
3916.000000	0.016674
3915.000000	0.016611
3914.000000	0.016506
3913.000000	0.016384
3912.000000	0.016274
3911.000000	0.016233
3910.000000	0.016330
3909.000000	0.016622
3908.000000	0.017111
3907.000000	0.017745
3906.000000	0.018450
3905.000000	0.019170
3904.000000	0.019891
3903.000000	0.020595
3902.000000	0.021201
3901.000000	0.021583
3900.000000	0.021641
3899.000000	0.021396
3898.000000	0.020996
3897.000000	0.020622
3896.000000	0.020396
3895.000000	0.020341
3894.000000	0.020391
3893.000000	0.020454
3892.000000	0.020506
3891.000000	0.020616
3890.000000	0.020879
3889.000000	0.021319
3888.000000	0.021830
3887.000000	0.022242
3886.000000	0.022500
3885.000000	0.022718
3884.000000	0.023031
3883.000000	0.023414
3882.000000	0.023685
3881.000000	0.023692
3880.000000	0.023493
3879.000000	0.023307
3878.000000	0.023310
3877.000000	0.023499
3876.000000	0.023747
3875.000000	0.023975
3874.000000	0.024246
3873.000000	0.024662
3872.000000	0.025199
3871.000000	0.025711
3870.000000	0.026103
3869.000000	0.026428
3868.000000	0.026776
3867.000000	0.027137
3866.000000	0.027389
3865.000000	0.027421
3864.000000	0.027274
3863.000000	0.027087
3862.000000	0.026971
3861.000000	0.026976
3860.000000	0.027122
3859.000000	0.027454
3858.000000	0.028026
3857.000000	0.028826
3856.000000	0.029693
3855.000000	0.030375
3854.000000	0.030861
3853.000000	0.031371
3852.000000	0.031860
3851.000000	0.032070
3850.000000	0.031894
3849.000000	0.031416
3848.000000	0.030825
3847.000000	0.030328
3846.000000	0.030060
3845.000000	0.030066
3844.000000	0.030340
3843.000000	0.030849
3842.000000	0.031529
3841.000000	0.032283
3840.000000	0.032983
3839.000000	0.033560
3838.000000	0.034042
3837.000000	0.034480
3836.000000	0.034850
3835.000000	0.035070
3834.000000	0.035077
3833.000000	0.034876
3832.000000	0.034560
3831.000000	0.034286
3830.000000	0.034183
3829.000000	0.034252
3828.000000	0.034410
3827.000000	0.034622
3826.000000	0.034962
3825.000000	0.035530
3824.000000	0.036301
3823.000000	0.037070
3822.000000	0.037643
3821.000000	0.038067
3820.000000	0.038515
3819.000000	0.039038
3818.000000	0.039490
3817.000000	0.039660
3816.000000	0.039529
3815.000000	0.039306
3814.000000	0.039198
3813.000000	0.039244
3812.000000	0.039376
3811.000000	0.039551
3810.000000	0.039772
3809.000000	0.040028
3808.000000	0.040327
3807.000000	0.040758
3806.000000	0.041434
3805.000000	0.042344
3804.000000	0.043295
3803.000000	0.044008
3802.000000	0.044373
3801.000000	0.044592
3800.000000	0.044912
3799.000000	0.045336
3798.000000	0.045659
3797.000000	0.045697
3796.000000	0.045477
3795.000000	0.045208
3794.000000	0.045079
3793.000000	0.045127
3792.000000	0.045278
3791.000000	0.045473
3790.000000	0.045724
3789.000000	0.046061
3788.000000	0.046487
3787.000000	0.046961
3786.000000	0.047446
3785.000000	0.047946
3784.000000	0.048495
3783.000000	0.049121
3782.000000	0.049792
3781.000000	0.050406
3780.000000	0.050875
3779.000000	0.051213
3778.000000	0.051515
3777.000000	0.051849
3776.000000	0.052230
3775.000000	0.052664
3774.000000	0.053177
3773.000000	0.053780
3772.000000	0.054432
3771.000000	0.055079
3770.000000	0.055726
3769.000000	0.056418
3768.000000	0.057146
3767.000000	0.057826
3766.000000	0.058380
3765.000000	0.058820
3764.000000	0.059251
3763.000000	0.059775
3762.000000	0.060398
3761.000000	0.061038
3760.000000	0.061629
3759.000000	0.062221
3758.000000	0.062906
3757.000000	0.063721
3756.000000	0.064650
3755.000000	0.065666
3754.000000	0.066731
3753.000000	0.067784
3752.000000	0.068801
3751.000000	0.069872
3750.000000	0.071084
3749.000000	0.072390
3748.000000	0.073657
3747.000000	0.074742
3746.000000	0.075493
3745.000000	0.075899
3744.000000	0.076214
3743.000000	0.076639
3742.000000	0.077153
3741.000000	0.077660
3740.000000	0.078113
3739.000000	0.078575
3738.000000	0.079190
3737.000000	0.080072
3736.000000	0.081203
3735.000000	0.082391
3734.000000	0.083394
3733.000000	0.084067
3732.000000	0.084429
3731.000000	0.084647
3730.000000	0.084924
3729.000000	0.085376
3728.000000	0.085994
3727.000000	0.086727
3726.000000	0.087573
3725.000000	0.088550
3724.000000	0.089610
3723.000000	0.090645
3722.000000	0.091591
3721.000000	0.092473
3720.000000	0.093345
3719.000000	0.094262
3718.000000	0.095275
3717.000000	0.096432
3716.000000	0.097776
3715.000000	0.099332
3714.000000	0.101091
3713.000000	0.103008
3712.000000	0.105017
3711.000000	0.107051
3710.000000	0.109025
3709.000000	0.110853
3708.000000	0.112504
3707.000000	0.114039
3706.000000	0.115594
3705.000000	0.117293
3704.000000	0.119178
3703.000000	0.121228
3702.000000	0.123411
3701.000000	0.125686
3700.000000	0.127970
3699.000000	0.130163
3698.000000	0.132194
3697.000000	0.134030
3696.000000	0.135696
3695.000000	0.137279
3694.000000	0.138872
3693.000000	0.140502
3692.000000	0.142131
3691.000000	0.143737
3690.000000	0.145387
3689.000000	0.147173
3688.000000	0.149049
3687.000000	0.150859
3686.000000	0.152511
3685.000000	0.154036
3684.000000	0.155541
3683.000000	0.157186
3682.000000	0.159139
3681.000000	0.161488
3680.000000	0.164212
3679.000000	0.167272
3678.000000	0.170701
3677.000000	0.174549
3676.000000	0.178740
3675.000000	0.183028
3674.000000	0.187153
3673.000000	0.191050
3672.000000	0.194784
3671.000000	0.198390
3670.000000	0.201899
3669.000000	0.205373
3668.000000	0.208813
3667.000000	0.212159
3666.000000	0.215384
3665.000000	0.218546
3664.000000	0.221784
3663.000000	0.225254
3662.000000	0.229033
3661.000000	0.233063
3660.000000	0.237236
3659.000000	0.241503
3658.000000	0.245901
3657.000000	0.250449
3656.000000	0.255072
3655.000000	0.259658
3654.000000	0.264177
3653.000000	0.268687
3652.000000	0.273249
3651.000000	0.277931
3650.000000	0.282845
3649.000000	0.287980
3648.000000	0.293019
3647.000000	0.297536
3646.000000	0.301370
3645.000000	0.304677
3644.000000	0.307733
3643.000000	0.310795
3642.000000	0.314049
3641.000000	0.317589
3640.000000	0.321410
3639.000000	0.325452
3638.000000	0.329660
3637.000000	0.334007
3636.000000	0.338478
3635.000000	0.343027
3634.000000	0.347586
3633.000000	0.352132
3632.000000	0.356778
3631.000000	0.361740
3630.000000	0.367178
3629.000000	0.372961
3628.000000	0.378617
3627.000000	0.383702
3626.000000	0.388083
3625.000000	0.391840
3624.000000	0.395128
3623.000000	0.398166
3622.000000	0.401210
3621.000000	0.404429
3620.000000	0.407836
3619.000000	0.411353
3618.000000	0.414886
3617.000000	0.418358
3616.000000	0.421729
3615.000000	0.425021
3614.000000	0.428303
3613.000000	0.431650
3612.000000	0.435123
3611.000000	0.438785
3610.000000	0.442666
3609.000000	0.446683
3608.000000	0.450660
3607.000000	0.454476
3606.000000	0.458133
3605.000000	0.461680
3604.000000	0.465163
3603.000000	0.468660
3602.000000	0.472287
3601.000000	0.476101
3600.000000	0.480045
3599.000000	0.484043
3598.000000	0.488077
3597.000000	0.492161
3596.000000	0.496300
3595.000000	0.500487
3594.000000	0.504698
3593.000000	0.508873
3592.000000	0.512965
3591.000000	0.517054
3590.000000	0.521329
3589.000000	0.525947
3588.000000	0.530878
3587.000000	0.535894
3586.000000	0.540680
3585.000000	0.545008
3584.000000	0.548843
3583.000000	0.552361
3582.000000	0.555826
3581.000000	0.559415
3580.000000	0.563172
3579.000000	0.567100
3578.000000	0.571211
3577.000000	0.575463
3576.000000	0.579761
3575.000000	0.584054
3574.000000	0.588367
3573.000000	0.592725
3572.000000	0.597121
3571.000000	0.601586
3570.000000	0.606199
3569.000000	0.610999
3568.000000	0.615929
3567.000000	0.620860
3566.000000	0.625628
3565.000000	0.630081
3564.000000	0.634173
3563.000000	0.638001
3562.000000	0.641733
3561.000000	0.645468
3560.000000	0.649218
3559.000000	0.653003
3558.000000	0.656868
3557.000000	0.660818
3556.000000	0.664826
3555.000000	0.668918
3554.000000	0.673149
3553.000000	0.677471
3552.000000	0.681745
3551.000000	0.685895
3550.000000	0.689996
3549.000000	0.694175
3548.000000	0.698506
3547.000000	0.702990
3546.000000	0.707518
3545.000000	0.711861
3544.000000	0.715822
3543.000000	0.719394
3542.000000	0.722729
3541.000000	0.725992
3540.000000	0.729319
3539.000000	0.732855
3538.000000	0.736664
3537.000000	0.740604
3536.000000	0.744429
3535.000000	0.748029
3534.000000	0.751490
3533.000000	0.754930
3532.000000	0.758400
3531.000000	0.761937
3530.000000	0.765581
3529.000000	0.769314
3528.000000	0.773091
3527.000000	0.776932
3526.000000	0.780870
3525.000000	0.784803
3524.000000	0.788520
3523.000000	0.791907
3522.000000	0.795029
3521.000000	0.798015
3520.000000	0.800978
3519.000000	0.804021
3518.000000	0.807210
3517.000000	0.810508
3516.000000	0.813823
3515.000000	0.817108
3514.000000	0.820354
3513.000000	0.823516
3512.000000	0.826567
3511.000000	0.829575
3510.000000	0.832627
3509.000000	0.835701
3508.000000	0.838731
3507.000000	0.841755
3506.000000	0.844884
3505.000000	0.848123
3504.000000	0.851354
3503.000000	0.854471
3502.000000	0.857427
3501.000000	0.860189
3500.000000	0.862772
3499.000000	0.865295
3498.000000	0.867867
3497.000000	0.870460
3496.000000	0.872975
3495.000000	0.875410
3494.000000	0.877835
3493.000000	0.880251
3492.000000	0.882618
3491.000000	0.884973
3490.000000	0.887402
3489.000000	0.889898
3488.000000	0.892378
3487.000000	0.894804
3486.000000	0.897188
3485.000000	0.899513
3484.000000	0.901785
3483.000000	0.904105
3482.000000	0.906561
3481.000000	0.909068
3480.000000	0.911440
3479.000000	0.913601
3478.000000	0.915612
3477.000000	0.917544
3476.000000	0.919441
3475.000000	0.921379
3474.000000	0.923425
3473.000000	0.925579
3472.000000	0.927837
3471.000000	0.930244
3470.000000	0.932763
3469.000000	0.935178
3468.000000	0.937254
3467.000000	0.938979
3466.000000	0.940513
3465.000000	0.941997
3464.000000	0.943523
3463.000000	0.945193
3462.000000	0.947049
3461.000000	0.948958
3460.000000	0.950736
3459.000000	0.952348
3458.000000	0.953878
3457.000000	0.955368
3456.000000	0.956819
3455.000000	0.958281
3454.000000	0.959801
3453.000000	0.961334
3452.000000	0.962819
3451.000000	0.964299
3450.000000	0.965847
3449.000000	0.967424
3448.000000	0.968935
3447.000000	0.970357
3446.000000	0.971698
3445.000000	0.972915
3444.000000	0.973985
3443.000000	0.975005
3442.000000	0.976099
3441.000000	0.977291
3440.000000	0.978566
3439.000000	0.979954
3438.000000	0.981427
3437.000000	0.982803
3436.000000	0.983888
3435.000000	0.984672
3434.000000	0.985280
3433.000000	0.985817
3432.000000	0.986355
3431.000000	0.986968
3430.000000	0.987631
3429.000000	0.988181
3428.000000	0.988504
3427.000000	0.988697
3426.000000	0.988930
3425.000000	0.989248
3424.000000	0.989619
3423.000000	0.990067
3422.000000	0.990595
3421.000000	0.991088
3420.000000	0.991421
3419.000000	0.991617
3418.000000	0.991784
3417.000000	0.991978
3416.000000	0.992229
3415.000000	0.992592
3414.000000	0.993046
3413.000000	0.993434
3412.000000	0.993633
3411.000000	0.993706
3410.000000	0.993763
3409.000000	0.993790
3408.000000	0.993725
3407.000000	0.993620
3406.000000	0.993597
3405.000000	0.993726
3404.000000	0.994042
3403.000000	0.994565
3402.000000	0.995183
3401.000000	0.995602
3400.000000	0.995590
3399.000000	0.995201
3398.000000	0.994676
3397.000000	0.994210
3396.000000	0.993918
3395.000000	0.993901
3394.000000	0.994167
3393.000000	0.994525
3392.000000	0.994703
3391.000000	0.994559
3390.000000	0.994128
3389.000000	0.993528
3388.000000	0.992928
3387.000000	0.992488
3386.000000	0.992239
3385.000000	0.992067
3384.000000	0.991880
3383.000000	0.991717
3382.000000	0.991621
3381.000000	0.991523
3380.000000	0.991344
3379.000000	0.991116
3378.000000	0.990894
3377.000000	0.990635
3376.000000	0.990287
3375.000000	0.989909
3374.000000	0.989610
3373.000000	0.989438
3372.000000	0.989391
3371.000000	0.989450
3370.000000	0.989508
3369.000000	0.989373
3368.000000	0.988925
3367.000000	0.988229
3366.000000	0.987408
3365.000000	0.986521
3364.000000	0.985620
3363.000000	0.984808
3362.000000	0.984125
3361.000000	0.983471
3360.000000	0.982727
3359.000000	0.981891
3358.000000	0.981011
3357.000000	0.980089
3356.000000	0.979132
3355.000000	0.978216
3354.000000	0.977391
3353.000000	0.976604
3352.000000	0.975760
3351.000000	0.974808
3350.000000	0.973702
3349.000000	0.972386
3348.000000	0.970896
3347.000000	0.969372
3346.000000	0.967922
3345.000000	0.966521
3344.000000	0.965112
3343.000000	0.963693
3342.000000	0.962259
3341.000000	0.960749
3340.000000	0.959136
3339.000000	0.957461
3338.000000	0.955734
3337.000000	0.953885
3336.000000	0.951890
3335.000000	0.949830
3334.000000	0.947776
3333.000000	0.945711
3332.000000	0.943619
3331.000000	0.941555
3330.000000	0.939564
3329.000000	0.937608
3328.000000	0.935648
3327.000000	0.933686
3326.000000	0.931701
3325.000000	0.929622
3324.000000	0.927430
3323.000000	0.925203
3322.000000	0.923002
3321.000000	0.920805
3320.000000	0.918593
3319.000000	0.916407
3318.000000	0.914265
3317.000000	0.912113
3316.000000	0.909922
3315.000000	0.907733
3314.000000	0.905575
3313.000000	0.903408
3312.000000	0.901215
3311.000000	0.899048
3310.000000	0.896936
3309.000000	0.894821
3308.000000	0.892640
3307.000000	0.890389
3306.000000	0.888067
3305.000000	0.885641
3304.000000	0.883119
3303.000000	0.880586
3302.000000	0.878102
3301.000000	0.875640
3300.000000	0.873165
3299.000000	0.870699
3298.000000	0.868269
3297.000000	0.865856
3296.000000	0.863443
3295.000000	0.861039
3294.000000	0.858623
3293.000000	0.856132
3292.000000	0.853536
3291.000000	0.850875
3290.000000	0.848183
3289.000000	0.845461
3288.000000	0.842730
3287.000000	0.840046
3286.000000	0.837410
3285.000000	0.834754
3284.000000	0.832032
3283.000000	0.829272
3282.000000	0.826503
3281.000000	0.823707
3280.000000	0.820878
3279.000000	0.818052
3278.000000	0.815242
3277.000000	0.812413
3276.000000	0.809549
3275.000000	0.806680
3274.000000	0.803823
3273.000000	0.800946
3272.000000	0.798024
3271.000000	0.795078
3270.000000	0.792124
3269.000000	0.789143
3268.000000	0.786136
3267.000000	0.783137
3266.000000	0.780165
3265.000000	0.777200
3264.000000	0.774235
3263.000000	0.771282
3262.000000	0.768327
3261.000000	0.765335
3260.000000	0.762311
3259.000000	0.759308
3258.000000	0.756349
3257.000000	0.753401
3256.000000	0.750438
3255.000000	0.747462
3254.000000	0.744472
3253.000000	0.741447
3252.000000	0.738400
3251.000000	0.735380
3250.000000	0.732406
3249.000000	0.729447
3248.000000	0.726482
3247.000000	0.723512
3246.000000	0.720525
3245.000000	0.717492
3244.000000	0.714415
3243.000000	0.711331
3242.000000	0.708255
3241.000000	0.705165
3240.000000	0.702056
3239.000000	0.698954
3238.000000	0.695865
3237.000000	0.692767
3236.000000	0.689659
3235.000000	0.686569
3234.000000	0.683495
3233.000000	0.680402
3232.000000	0.677268
3231.000000	0.674114
3230.000000	0.670953
3229.000000	0.667774
3228.000000	0.664573
3227.000000	0.661368
3226.000000	0.658167
3225.000000	0.654960
3224.000000	0.651750
3223.000000	0.648557
3222.000000	0.645375
3221.000000	0.642168
3220.000000	0.638918
3219.000000	0.635645
3218.000000	0.632372
3217.000000	0.629096
3216.000000	0.625819
3215.000000	0.622551
3214.000000	0.619291
3213.000000	0.616020
3212.000000	0.612732
3211.000000	0.609435
3210.000000	0.606126
3209.000000	0.602799
3208.000000	0.599472
3207.000000	0.596174
3206.000000	0.592904
3205.000000	0.589631
3204.000000	0.586341
3203.000000	0.583052
3202.000000	0.579774
3201.000000	0.576497
3200.000000	0.573213
3199.000000	0.569929
3198.000000	0.566644
3197.000000	0.563349
3196.000000	0.560049
3195.000000	0.556767
3194.000000	0.553510
3193.000000	0.550261
3192.000000	0.547010
3191.000000	0.543762
3190.000000	0.540524
3189.000000	0.537292
3188.000000	0.534071
3187.000000	0.530866
3186.000000	0.527670
3185.000000	0.524472
3184.000000	0.521275
3183.000000	0.518098
3182.000000	0.514949
3181.000000	0.511818
3180.000000	0.508694
3179.000000	0.505573
3178.000000	0.502449
3177.000000	0.499319
3176.000000	0.496197
3175.000000	0.493100
3174.000000	0.490030
3173.000000	0.486974
3172.000000	0.483924
3171.000000	0.480884
3170.000000	0.477857
3169.000000	0.474846
3168.000000	0.471860
3167.000000	0.468909
3166.000000	0.465981
3165.000000	0.463056
3164.000000	0.460126
3163.000000	0.457203
3162.000000	0.454296
3161.000000	0.451404
3160.000000	0.448529
3159.000000	0.445675
3158.000000	0.442842
3157.000000	0.440031
3156.000000	0.437250
3155.000000	0.434509
3154.000000	0.431794
3153.000000	0.429080
3152.000000	0.426346
3151.000000	0.423600
3150.000000	0.420858
3149.000000	0.418133
3148.000000	0.415437
3147.000000	0.412770
3146.000000	0.410128
3145.000000	0.407503
3144.000000	0.404896
3143.000000	0.402315
3142.000000	0.399764
3141.000000	0.397242
3140.000000	0.394738
3139.000000	0.392240
3138.000000	0.389739
3137.000000	0.387243
3136.000000	0.384769
3135.000000	0.382321
3134.000000	0.379890
3133.000000	0.377468
3132.000000	0.375065
3131.000000	0.372696
3130.000000	0.370360
3129.000000	0.368041
3128.000000	0.365729
3127.000000	0.363428
3126.000000	0.361146
3125.000000	0.358891
3124.000000	0.356670
3123.000000	0.354486
3122.000000	0.352333
3121.000000	0.350200
3120.000000	0.348075
3119.000000	0.345953
3118.000000	0.343831
3117.000000	0.341713
3116.000000	0.339604
3115.000000	0.337505
3114.000000	0.335423
3113.000000	0.333369
3112.000000	0.331358
3111.000000	0.329395
3110.000000	0.327470
3109.000000	0.325565
3108.000000	0.323668
3107.000000	0.321775
3106.000000	0.319897
3105.000000	0.318044
3104.000000	0.316226
3103.000000	0.314439
3102.000000	0.312678
3101.000000	0.310937
3100.000000	0.309215
3099.000000	0.307512
3098.000000	0.305825
3097.000000	0.304153
3096.000000	0.302494
3095.000000	0.300848
3094.000000	0.299219
3093.000000	0.297619
3092.000000	0.296053
3091.000000	0.294512
3090.000000	0.292983
3089.000000	0.291461
3088.000000	0.289952
3087.000000	0.288468
3086.000000	0.287014
3085.000000	0.285588
3084.000000	0.284181
3083.000000	0.282784
3082.000000	0.281392
3081.000000	0.280011
3080.000000	0.278641
3079.000000	0.277276
3078.000000	0.275911
3077.000000	0.274550
3076.000000	0.273200
3075.000000	0.271867
3074.000000	0.270555
3073.000000	0.269268
3072.000000	0.268008
3071.000000	0.266769
3070.000000	0.265544
3069.000000	0.264331
3068.000000	0.263123
3067.000000	0.261904
3066.000000	0.260656
3065.000000	0.259377
3064.000000	0.258071
3063.000000	0.256745
3062.000000	0.255402
3061.000000	0.254050
3060.000000	0.252694
3059.000000	0.251333
3058.000000	0.249963
3057.000000	0.248587
3056.000000	0.247209
3055.000000	0.245834
3054.000000	0.244466
3053.000000	0.243120
3052.000000	0.241804
3051.000000	0.240513
3050.000000	0.239239
3049.000000	0.237975
3048.000000	0.236726
3047.000000	0.235495
3046.000000	0.234288
3045.000000	0.233110
3044.000000	0.231966
3043.000000	0.230849
3042.000000	0.229753
3041.000000	0.228678
3040.000000	0.227626
3039.000000	0.226593
3038.000000	0.225580
3037.000000	0.224595
3036.000000	0.223647
3035.000000	0.222737
3034.000000	0.221856
3033.000000	0.220992
3032.000000	0.220134
3031.000000	0.219275
3030.000000	0.218422
3029.000000	0.217593
3028.000000	0.216796
3027.000000	0.216028
3026.000000	0.215286
3025.000000	0.214584
3024.000000	0.213930
3023.000000	0.213321
3022.000000	0.212751
3021.000000	0.212223
3020.000000	0.211746
3019.000000	0.211322
3018.000000	0.210956
3017.000000	0.210651
3016.000000	0.210411
3015.000000	0.210226
3014.000000	0.210088
3013.000000	0.209991
3012.000000	0.209931
3011.000000	0.209900
3010.000000	0.209896
3009.000000	0.209933
3008.000000	0.210022
3007.000000	0.210170
3006.000000	0.210376
3005.000000	0.210641
3004.000000	0.210968
3003.000000	0.211356
3002.000000	0.211807
3001.000000	0.212334
3000.000000	0.212952
2999.000000	0.213670
2998.000000	0.214496
2997.000000	0.215440
2996.000000	0.216510
2995.000000	0.217709
2994.000000	0.219039
2993.000000	0.220510
2992.000000	0.222130
2991.000000	0.223899
2990.000000	0.225819
2989.000000	0.227888
2988.000000	0.230102
2987.000000	0.232449
2986.000000	0.234918
2985.000000	0.237505
2984.000000	0.240211
2983.000000	0.243030
2982.000000	0.245954
2981.000000	0.248978
2980.000000	0.252093
2979.000000	0.255291
2978.000000	0.258567
2977.000000	0.261927
2976.000000	0.265371
2975.000000	0.268891
2974.000000	0.272474
2973.000000	0.276107
2972.000000	0.279786
2971.000000	0.283504
2970.000000	0.287253
2969.000000	0.291018
2968.000000	0.294782
2967.000000	0.298526
2966.000000	0.302232
2965.000000	0.305895
2964.000000	0.309516
2963.000000	0.313097
2962.000000	0.316646
2961.000000	0.320172
2960.000000	0.323689
2959.000000	0.327207
2958.000000	0.330738
2957.000000	0.334294
2956.000000	0.337894
2955.000000	0.341559
2954.000000	0.345308
2953.000000	0.349162
2952.000000	0.353140
2951.000000	0.357253
2950.000000	0.361509
2949.000000	0.365912
2948.000000	0.370456
2947.000000	0.375116
2946.000000	0.379846
2945.000000	0.384600
2944.000000	0.389334
2943.000000	0.394008
2942.000000	0.398574
2941.000000	0.402989
2940.000000	0.407219
2939.000000	0.411236
2938.000000	0.415008
2937.000000	0.418505
2936.000000	0.421704
2935.000000	0.424584
2934.000000	0.427116
2933.000000	0.429277
2932.000000	0.431051
2931.000000	0.432416
2930.000000	0.433330
2929.000000	0.433739
2928.000000	0.433598
2927.000000	0.432862
2926.000000	0.431479
2925.000000	0.429409
2924.000000	0.426646
2923.000000	0.423217
2922.000000	0.419181
2921.000000	0.414632
2920.000000	0.409696
2919.000000	0.404508
2918.000000	0.399195
2917.000000	0.393879
2916.000000	0.388665
2915.000000	0.383628
2914.000000	0.378807
2913.000000	0.374226
2912.000000	0.369903
2911.000000	0.365838
2910.000000	0.362015
2909.000000	0.358411
2908.000000	0.355011
2907.000000	0.351797
2906.000000	0.348745
2905.000000	0.345829
2904.000000	0.343031
2903.000000	0.340324
2902.000000	0.337683
2901.000000	0.335097
2900.000000	0.332560
2899.000000	0.330063
2898.000000	0.327590
2897.000000	0.325128
2896.000000	0.322679
2895.000000	0.320245
2894.000000	0.317819
2893.000000	0.315394
2892.000000	0.312962
2891.000000	0.310516
2890.000000	0.308052
2889.000000	0.305572
2888.000000	0.303081
2887.000000	0.300572
2886.000000	0.298037
2885.000000	0.295475
2884.000000	0.292894
2883.000000	0.290302
2882.000000	0.287701
2881.000000	0.285085
2880.000000	0.282445
2879.000000	0.279772
2878.000000	0.277059
2877.000000	0.274305
2876.000000	0.271511
2875.000000	0.268668
2874.000000	0.265769
2873.000000	0.262814
2872.000000	0.259809
2871.000000	0.256768
2870.000000	0.253724
2869.000000	0.250734
2868.000000	0.247865
2867.000000	0.245176
2866.000000	0.242715
2865.000000	0.240525
2864.000000	0.238639
2863.000000	0.237070
2862.000000	0.235808
2861.000000	0.234822
2860.000000	0.234041
2859.000000	0.233353
2858.000000	0.232617
2857.000000	0.231674
2856.000000	0.230362
2855.000000	0.228535
2854.000000	0.226088
2853.000000	0.222989
2852.000000	0.219271
2851.000000	0.215024
2850.000000	0.210394
2849.000000	0.205553
2848.000000	0.200661
2847.000000	0.195836
2846.000000	0.191164
2845.000000	0.186706
2844.000000	0.182492
2843.000000	0.178520
2842.000000	0.174773
2841.000000	0.171231
2840.000000	0.167874
2839.000000	0.164676
2838.000000	0.161617
2837.000000	0.158686
2836.000000	0.155871
2835.000000	0.153158
2834.000000	0.150541
2833.000000	0.148024
2832.000000	0.145607
2831.000000	0.143281
2830.000000	0.141039
2829.000000	0.138889
2828.000000	0.136831
2827.000000	0.134858
2826.000000	0.132966
2825.000000	0.131157
2824.000000	0.129421
2823.000000	0.127742
2822.000000	0.126113
2821.000000	0.124542
2820.000000	0.123031
2819.000000	0.121571
2818.000000	0.120160
2817.000000	0.118807
2816.000000	0.117509
2815.000000	0.116252
2814.000000	0.115024
2813.000000	0.113823
2812.000000	0.112654
2811.000000	0.111511
2810.000000	0.110401
2809.000000	0.109334
2808.000000	0.108311
2807.000000	0.107318
2806.000000	0.106349
2805.000000	0.105405
2804.000000	0.104482
2803.000000	0.103568
2802.000000	0.102665
2801.000000	0.101787
2800.000000	0.100944
2799.000000	0.100130
2798.000000	0.099343
2797.000000	0.098583
2796.000000	0.097841
2795.000000	0.097105
2794.000000	0.096375
2793.000000	0.095664
2792.000000	0.094978
2791.000000	0.094313
2790.000000	0.093672
2789.000000	0.093061
2788.000000	0.092476
2787.000000	0.091901
2786.000000	0.091328
2785.000000	0.090766
2784.000000	0.090221
2783.000000	0.089691
2782.000000	0.089179
2781.000000	0.088695
2780.000000	0.088238
2779.000000	0.087793
2778.000000	0.087355
2777.000000	0.086932
2776.000000	0.086530
2775.000000	0.086143
2774.000000	0.085776
2773.000000	0.085440
2772.000000	0.085130
2771.000000	0.084828
2770.000000	0.084523
2769.000000	0.084216
2768.000000	0.083896
2767.000000	0.083548
2766.000000	0.083167
2765.000000	0.082770
2764.000000	0.082364
2763.000000	0.081946
2762.000000	0.081517
2761.000000	0.081094
2760.000000	0.080682
2759.000000	0.080280
2758.000000	0.079890
2757.000000	0.079524
2756.000000	0.079182
2755.000000	0.078851
2754.000000	0.078528
2753.000000	0.078216
2752.000000	0.077916
2751.000000	0.077615
2750.000000	0.077314
2749.000000	0.077026
2748.000000	0.076755
2747.000000	0.076494
2746.000000	0.076239
2745.000000	0.075992
2744.000000	0.075749
2743.000000	0.075496
2742.000000	0.075235
2741.000000	0.074978
2740.000000	0.074726
2739.000000	0.074471
2738.000000	0.074216
2737.000000	0.073968
2736.000000	0.073725
2735.000000	0.073466
2734.000000	0.073188
2733.000000	0.072903
2732.000000	0.072621
2731.000000	0.072338
2730.000000	0.072053
2729.000000	0.071771
2728.000000	0.071491
2727.000000	0.071202
2726.000000	0.070904
2725.000000	0.070604
2724.000000	0.070300
2723.000000	0.069984
2722.000000	0.069662
2721.000000	0.069348
2720.000000	0.069039
2719.000000	0.068720
2718.000000	0.068386
2717.000000	0.068049
2716.000000	0.067710
2715.000000	0.067361
2714.000000	0.067001
2713.000000	0.066644
2712.000000	0.066290
2711.000000	0.065929
2710.000000	0.065557
2709.000000	0.065183
2708.000000	0.064807
2707.000000	0.064425
2706.000000	0.064041
2705.000000	0.063671
2704.000000	0.063315
2703.000000	0.062959
2702.000000	0.062602
2701.000000	0.062252
2700.000000	0.061911
2699.000000	0.061567
2698.000000	0.061219
2697.000000	0.060882
2696.000000	0.060562
2695.000000	0.060249
2694.000000	0.059938
2693.000000	0.059635
2692.000000	0.059336
2691.000000	0.059033
2690.000000	0.058728
2689.000000	0.058434
2688.000000	0.058154
2687.000000	0.057874
2686.000000	0.057595
2685.000000	0.057324
2684.000000	0.057059
2683.000000	0.056786
2682.000000	0.056507
2681.000000	0.056236
2680.000000	0.055979
2679.000000	0.055726
2678.000000	0.055472
2677.000000	0.055225
2676.000000	0.054980
2675.000000	0.054725
2674.000000	0.054461
2673.000000	0.054200
2672.000000	0.053946
2671.000000	0.053688
2670.000000	0.053429
2669.000000	0.053178
2668.000000	0.052935
2667.000000	0.052684
2666.000000	0.052425
2665.000000	0.052168
2664.000000	0.051918
2663.000000	0.051667
2662.000000	0.051413
2661.000000	0.051167
2660.000000	0.050926
2659.000000	0.050678
2658.000000	0.050422
2657.000000	0.050169
2656.000000	0.049918
2655.000000	0.049661
2654.000000	0.049402
2653.000000	0.049154
2652.000000	0.048915
2651.000000	0.048668
2650.000000	0.048409
2649.000000	0.048148
2648.000000	0.047890
2647.000000	0.047622
2646.000000	0.047348
2645.000000	0.047081
2644.000000	0.046821
2643.000000	0.046554
2642.000000	0.046276
2641.000000	0.045997
2640.000000	0.045715
2639.000000	0.045420
2638.000000	0.045117
2637.000000	0.044823
2636.000000	0.044539
2635.000000	0.044247
2634.000000	0.043943
2633.000000	0.043638
2632.000000	0.043334
2631.000000	0.043019
2630.000000	0.042696
2629.000000	0.042383
2628.000000	0.042082
2627.000000	0.041782
2626.000000	0.041478
2625.000000	0.041181
2624.000000	0.040886
2623.000000	0.040583
2622.000000	0.040275
2621.000000	0.039980
2620.000000	0.039700
2619.000000	0.039421
2618.000000	0.039141
2617.000000	0.038870
2616.000000	0.038605
2615.000000	0.038334
2614.000000	0.038057
2613.000000	0.037788
2612.000000	0.037532
2611.000000	0.037277
2610.000000	0.037022
2609.000000	0.036775
2608.000000	0.036532
2607.000000	0.036281
2606.000000	0.036021
2605.000000	0.035769
2604.000000	0.035532
2603.000000	0.035300
2602.000000	0.035072
2601.000000	0.034856
2600.000000	0.034645
2599.000000	0.034419
2598.000000	0.034182
2597.000000	0.033953
2596.000000	0.033739
2595.000000	0.033530
2594.000000	0.033326
2593.000000	0.033137
2592.000000	0.032957
2591.000000	0.032766
2590.000000	0.032562
2589.000000	0.032359
2588.000000	0.032160
2587.000000	0.031960
2586.000000	0.031763
2585.000000	0.031586
2584.000000	0.031424
2583.000000	0.031254
2582.000000	0.031069
2581.000000	0.030879
2580.000000	0.030691
2579.000000	0.030497
2578.000000	0.030305
2577.000000	0.030130
2576.000000	0.029974
2575.000000	0.029818
2574.000000	0.029655
2573.000000	0.029490
2572.000000	0.029320
2571.000000	0.029133
2570.000000	0.028935
2569.000000	0.028750
2568.000000	0.028584
2567.000000	0.028422
2566.000000	0.028257
2565.000000	0.028095
2564.000000	0.027927
2563.000000	0.027741
2562.000000	0.027541
2561.000000	0.027350
2560.000000	0.027175
2559.000000	0.027006
2558.000000	0.026839
2557.000000	0.026681
2556.000000	0.026524
2555.000000	0.026350
2554.000000	0.026161
2553.000000	0.025979
2552.000000	0.025807
2551.000000	0.025636
2550.000000	0.025469
2549.000000	0.025317
2548.000000	0.025173
2547.000000	0.025017
2546.000000	0.024845
2545.000000	0.024676
2544.000000	0.024512
2543.000000	0.024346
2542.000000	0.024182
2541.000000	0.024033
2540.000000	0.023891
2539.000000	0.023737
2538.000000	0.023570
2537.000000	0.023404
2536.000000	0.023242
2535.000000	0.023073
2534.000000	0.022903
2533.000000	0.022747
2532.000000	0.022602
2531.000000	0.022446
2530.000000	0.022277
2529.000000	0.022109
2528.000000	0.021945
2527.000000	0.021776
2526.000000	0.021605
2525.000000	0.021451
2524.000000	0.021313
2523.000000	0.021174
2522.000000	0.021030
2521.000000	0.020890
2520.000000	0.020752
2519.000000	0.020601
2518.000000	0.020442
2517.000000	0.020299
2516.000000	0.020173
2515.000000	0.020050
2514.000000	0.019925
2513.000000	0.019807
2512.000000	0.019694
2511.000000	0.019570
2510.000000	0.019438
2509.000000	0.019319
2508.000000	0.019213
2507.000000	0.019107
2506.000000	0.019000
2505.000000	0.018904
2504.000000	0.018812
2503.000000	0.018707
2502.000000	0.018589
2501.000000	0.018475
2500.000000	0.018366
2499.000000	0.018241
2498.000000	0.018100
2497.000000	0.017959
2496.000000	0.017816
2495.000000	0.017657
2494.000000	0.017487
2493.000000	0.017323
2492.000000	0.017167
2491.000000	0.017002
2490.000000	0.016828
2489.000000	0.016663
2488.000000	0.016508
2487.000000	0.016349
2486.000000	0.016192
2485.000000	0.016051
2484.000000	0.015922
2483.000000	0.015784
2482.000000	0.015635
2481.000000	0.015492
2480.000000	0.015353
2479.000000	0.015203
2478.000000	0.015044
2477.000000	0.014898
2476.000000	0.014768
2475.000000	0.014639
2474.000000	0.014506
2473.000000	0.014379
2472.000000	0.014252
2471.000000	0.014109
2470.000000	0.013954
2469.000000	0.013806
2468.000000	0.013668
2467.000000	0.013530
2466.000000	0.013394
2465.000000	0.013276
2464.000000	0.013166
2463.000000	0.013040
2462.000000	0.012894
2461.000000	0.012751
2460.000000	0.012615
2459.000000	0.012474
2458.000000	0.012334
2457.000000	0.012209
2456.000000	0.012095
2455.000000	0.011969
2454.000000	0.011827
2453.000000	0.011685
2452.000000	0.011541
2451.000000	0.011386
2450.000000	0.011226
2449.000000	0.011086
2448.000000	0.010963
2447.000000	0.010834
2446.000000	0.010694
2445.000000	0.010555
2444.000000	0.010419
2443.000000	0.010271
2442.000000	0.010116
2441.000000	0.009975
2440.000000	0.009848
2439.000000	0.009718
2438.000000	0.009581
2437.000000	0.009449
2436.000000	0.009316
2435.000000	0.009162
2434.000000	0.008994
2433.000000	0.008841
2432.000000	0.008706
2431.000000	0.008571
2430.000000	0.008432
2429.000000	0.008299
2428.000000	0.008166
2427.000000	0.008012
2426.000000	0.007844
2425.000000	0.007685
2424.000000	0.007545
2423.000000	0.007412
2422.000000	0.007284
2421.000000	0.007170
2420.000000	0.007057
2419.000000	0.006918
2418.000000	0.006757
2417.000000	0.006603
2416.000000	0.006464
2415.000000	0.006331
2414.000000	0.006206
2413.000000	0.006103
2412.000000	0.006011
2411.000000	0.005901
2410.000000	0.005770
2409.000000	0.005639
2408.000000	0.005514
2407.000000	0.005391
2406.000000	0.005277
2405.000000	0.005190
2404.000000	0.005117
2403.000000	0.005025
2402.000000	0.004907
2401.000000	0.004779
2400.000000	0.004642
2399.000000	0.004486
2398.000000	0.004327
2397.000000	0.004192
2396.000000	0.004083
2395.000000	0.003971
2394.000000	0.003846
2393.000000	0.003720
2392.000000	0.003591
2391.000000	0.003446
2390.000000	0.003300
2389.000000	0.003180
2388.000000	0.003088
2387.000000	0.003004
2386.000000	0.002926
2385.000000	0.002864
2384.000000	0.002806
2383.000000	0.002728
2382.000000	0.002640
2381.000000	0.002570
2380.000000	0.002521
2379.000000	0.002469
2378.000000	0.002407
2377.000000	0.002348
2376.000000	0.002275
2375.000000	0.002159
2374.000000	0.002002
2373.000000	0.001843
2372.000000	0.001697
2371.000000	0.001554
2370.000000	0.001426
2369.000000	0.001342
2368.000000	0.001294
2367.000000	0.001239
2366.000000	0.001179
2365.000000	0.001152
2364.000000	0.001144
2363.000000	0.001119
2362.000000	0.001101
2361.000000	0.001115
2360.000000	0.001153
2359.000000	0.001185
2358.000000	0.001211
2357.000000	0.001283
2356.000000	0.001379
2355.000000	0.001472
2354.000000	0.001561
2353.000000	0.001626
2352.000000	0.001573
2351.000000	0.001309
2350.000000	0.000967
2349.000000	0.000761
2348.000000	0.000780
2347.000000	0.000935
2346.000000	0.001014
2345.000000	0.000952
2344.000000	0.000783
2343.000000	0.000636
2342.000000	0.000564
2341.000000	0.000532
2340.000000	0.000521
2339.000000	0.000486
2338.000000	0.000441
2337.000000	0.000387
2336.000000	0.000333
2335.000000	0.000254
2334.000000	0.000185
2333.000000	0.000145
2332.000000	0.000153
2331.000000	0.000126
2330.000000	0.000094
2329.000000	0.000078
2328.000000	0.000106
2327.000000	0.000167
2326.000000	0.000233
2325.000000	0.000329
2324.000000	0.000406
2323.000000	0.000445
2322.000000	0.000453
2321.000000	0.000459
2320.000000	0.000481
2319.000000	0.000481
2318.000000	0.000494
2317.000000	0.000530
2316.000000	0.000605
2315.000000	0.000654
2314.000000	0.000680
2313.000000	0.000693
2312.000000	0.000714
2311.000000	0.000718
2310.000000	0.000718
2309.000000	0.000730
2308.000000	0.000758
2307.000000	0.000776
2306.000000	0.000788
2305.000000	0.000817
2304.000000	0.000866
2303.000000	0.000906
2302.000000	0.000942
2301.000000	0.000989
2300.000000	0.001049
2299.000000	0.001092
2298.000000	0.001127
2297.000000	0.001174
2296.000000	0.001235
2295.000000	0.001282
2294.000000	0.001313
2293.000000	0.001352
2292.000000	0.001400
2291.000000	0.001438
2290.000000	0.001463
2289.000000	0.001498
2288.000000	0.001540
2287.000000	0.001568
2286.000000	0.001582
2285.000000	0.001607
2284.000000	0.001643
2283.000000	0.001673
2282.000000	0.001699
2281.000000	0.001746
2280.000000	0.001809
2279.000000	0.001861
2278.000000	0.001900
2277.000000	0.001947
2276.000000	0.002005
2275.000000	0.002049
2274.000000	0.002081
2273.000000	0.002126
2272.000000	0.002185
2271.000000	0.002237
2270.000000	0.002281
2269.000000	0.002339
2268.000000	0.002405
2267.000000	0.002454
2266.000000	0.002488
2265.000000	0.002535
2264.000000	0.002597
2263.000000	0.002649
2262.000000	0.002693
2261.000000	0.002754
2260.000000	0.002828
2259.000000	0.002891
2258.000000	0.002940
2257.000000	0.002998
2256.000000	0.003066
2255.000000	0.003122
2254.000000	0.003172
2253.000000	0.003239
2252.000000	0.003320
2251.000000	0.003387
2250.000000	0.003439
2249.000000	0.003500
2248.000000	0.003567
2247.000000	0.003620
2246.000000	0.003666
2245.000000	0.003734
2244.000000	0.003823
2243.000000	0.003906
2242.000000	0.003976
2241.000000	0.004053
2240.000000	0.004133
2239.000000	0.004191
2238.000000	0.004234
2237.000000	0.004293
2236.000000	0.004374
2235.000000	0.004453
2234.000000	0.004526
2233.000000	0.004609
2232.000000	0.004689
2231.000000	0.004734
2230.000000	0.004747
2229.000000	0.004762
2228.000000	0.004786
2227.000000	0.004799
2226.000000	0.004805
2225.000000	0.004829
2224.000000	0.004862
2223.000000	0.004871
2222.000000	0.004852
2221.000000	0.004832
2220.000000	0.004820
2219.000000	0.004801
2218.000000	0.004786
2217.000000	0.004803
2216.000000	0.004842
2215.000000	0.004864
2214.000000	0.004863
2213.000000	0.004862
2212.000000	0.004866
2211.000000	0.004857
2210.000000	0.004845
2209.000000	0.004866
2208.000000	0.004918
2207.000000	0.004970
2206.000000	0.005007
2205.000000	0.005046
2204.000000	0.005078
2203.000000	0.005081
2202.000000	0.005073
2201.000000	0.005093
2200.000000	0.005148
2199.000000	0.005207
2198.000000	0.005263
2197.000000	0.005331
2196.000000	0.005399
2195.000000	0.005434
2194.000000	0.005442
2193.000000	0.005466
2192.000000	0.005519
2191.000000	0.005582
2190.000000	0.005651
2189.000000	0.005743
2188.000000	0.005847
2187.000000	0.005927
2186.000000	0.005979
2185.000000	0.006037
2184.000000	0.006107
2183.000000	0.006173
2182.000000	0.006242
2181.000000	0.006342
2180.000000	0.006463
2179.000000	0.006564
2178.000000	0.006642
2177.000000	0.006722
2176.000000	0.006810
2175.000000	0.006886
2174.000000	0.006957
2173.000000	0.007053
2172.000000	0.007173
2171.000000	0.007283
2170.000000	0.007380
2169.000000	0.007484
2168.000000	0.007587
2167.000000	0.007662
2166.000000	0.007720
2165.000000	0.007799
2164.000000	0.007898
2163.000000	0.007986
2162.000000	0.008056
2161.000000	0.008133
2160.000000	0.008214
2159.000000	0.008271
2158.000000	0.008307
2157.000000	0.008353
2156.000000	0.008412
2155.000000	0.008457
2154.000000	0.008490
2153.000000	0.008537
2152.000000	0.008594
2151.000000	0.008629
2150.000000	0.008642
2149.000000	0.008664
2148.000000	0.008696
2147.000000	0.008712
2146.000000	0.008715
2145.000000	0.008736
2144.000000	0.008772
2143.000000	0.008792
2142.000000	0.008796
2141.000000	0.008812
2140.000000	0.008839
2139.000000	0.008847
2138.000000	0.008841
2137.000000	0.008853
2136.000000	0.008877
2135.000000	0.008883
2134.000000	0.008872
2133.000000	0.008879
2132.000000	0.008899
2131.000000	0.008896
2130.000000	0.008868
2129.000000	0.008850
2128.000000	0.008846
2127.000000	0.008830
2126.000000	0.008807
2125.000000	0.008811
2124.000000	0.008838
2123.000000	0.008850
2122.000000	0.008841
2121.000000	0.008838
2120.000000	0.008839
2119.000000	0.008817
2118.000000	0.008784
2117.000000	0.008780
2116.000000	0.008804
2115.000000	0.008813
2114.000000	0.008801
2113.000000	0.008796
2112.000000	0.008796
2111.000000	0.008770
2110.000000	0.008724
2109.000000	0.008699
2108.000000	0.008702
2107.000000	0.008702
2106.000000	0.008693
2105.000000	0.008704
2104.000000	0.008726
2103.000000	0.008719
2102.000000	0.008685
2101.000000	0.008660
2100.000000	0.008651
2099.000000	0.008633
2098.000000	0.008611
2097.000000	0.008620
2096.000000	0.008652
2095.000000	0.008661
2094.000000	0.008644
2093.000000	0.008641
2092.000000	0.008660
2091.000000	0.008670
2090.000000	0.008665
2089.000000	0.008676
2088.000000	0.008701
2087.000000	0.008708
2086.000000	0.008699
2085.000000	0.008706
2084.000000	0.008727
2083.000000	0.008729
2082.000000	0.008716
2081.000000	0.008727
2080.000000	0.008765
2079.000000	0.008795
2078.000000	0.008812
2077.000000	0.008846
2076.000000	0.008895
2075.000000	0.008925
2074.000000	0.008934
2073.000000	0.008959
2072.000000	0.008999
2071.000000	0.009019
2070.000000	0.009020
2069.000000	0.009044
2068.000000	0.009106
2067.000000	0.009176
2066.000000	0.009238
2065.000000	0.009301
2064.000000	0.009349
2063.000000	0.009354
2062.000000	0.009336
2061.000000	0.009342
2060.000000	0.009371
2059.000000	0.009384
2058.000000	0.009379
2057.000000	0.009394
2056.000000	0.009427
2055.000000	0.009444
2054.000000	0.009441
2053.000000	0.009452
2052.000000	0.009473
2051.000000	0.009465
2050.000000	0.009431
2049.000000	0.009415
2048.000000	0.009421
2047.000000	0.009407
2046.000000	0.009374
2045.000000	0.009363
2044.000000	0.009379
2043.000000	0.009380
2042.000000	0.009349
2041.000000	0.009306
2040.000000	0.009252
2039.000000	0.009165
2038.000000	0.009066
2037.000000	0.008999
2036.000000	0.008955
2035.000000	0.008884
2034.000000	0.008780
2033.000000	0.008679
2032.000000	0.008586
2031.000000	0.008469
2030.000000	0.008339
2029.000000	0.008238
2028.000000	0.008155
2027.000000	0.008046
2026.000000	0.007906
2025.000000	0.007777
2024.000000	0.007659
2023.000000	0.007507
2022.000000	0.007328
2021.000000	0.007188
2020.000000	0.007118
2019.000000	0.007076
2018.000000	0.007024
2017.000000	0.006950
2016.000000	0.006831
2015.000000	0.006648
2014.000000	0.006445
2013.000000	0.006289
2012.000000	0.006183
2011.000000	0.006084
2010.000000	0.005985
2009.000000	0.005918
2008.000000	0.005867
2007.000000	0.005786
2006.000000	0.005678
2005.000000	0.005591
2004.000000	0.005527
2003.000000	0.005451
2002.000000	0.005368
2001.000000	0.005312
2000.000000	0.005277
1999.000000	0.005217
1998.000000	0.005119
1997.000000	0.005030
1996.000000	0.004988
1995.000000	0.005005
1994.000000	0.005082
1993.000000	0.005192
1992.000000	0.005254
1991.000000	0.005210
1990.000000	0.005114
1989.000000	0.005050
1988.000000	0.005014
1987.000000	0.004951
1986.000000	0.004873
1985.000000	0.004839
1984.000000	0.004844
1983.000000	0.004828
1982.000000	0.004796
1981.000000	0.004794
1980.000000	0.004822
1979.000000	0.004831
1978.000000	0.004820
1977.000000	0.004834
1976.000000	0.004867
1975.000000	0.004865
1974.000000	0.004823
1973.000000	0.004790
1972.000000	0.004777
1971.000000	0.004767
1970.000000	0.004793
1969.000000	0.004902
1968.000000	0.005038
1967.000000	0.005083
1966.000000	0.005018
1965.000000	0.004933
1964.000000	0.004876
1963.000000	0.004823
1962.000000	0.004775
1961.000000	0.004780
1960.000000	0.004830
1959.000000	0.004860
1958.000000	0.004863
1957.000000	0.004889
1956.000000	0.004935
1955.000000	0.004945
1954.000000	0.004922
1953.000000	0.004937
1952.000000	0.004989
1951.000000	0.005018
1950.000000	0.005029
1949.000000	0.005063
1948.000000	0.005094
1947.000000	0.005081
1946.000000	0.005097
1945.000000	0.005255
1944.000000	0.005513
1943.000000	0.005689
1942.000000	0.005698
1941.000000	0.005629
1940.000000	0.005561
1939.000000	0.005482
1938.000000	0.005392
1937.000000	0.005355
1936.000000	0.005391
1935.000000	0.005440
1934.000000	0.005474
1933.000000	0.005542
1932.000000	0.005633
1931.000000	0.005690
1930.000000	0.005720
1929.000000	0.005767
1928.000000	0.005833
1927.000000	0.005878
1926.000000	0.005983
1925.000000	0.006232
1924.000000	0.006535
1923.000000	0.006728
1922.000000	0.006836
1921.000000	0.007037
1920.000000	0.007364
1919.000000	0.007626
1918.000000	0.007709
1917.000000	0.007718
1916.000000	0.007758
1915.000000	0.007810
1914.000000	0.007852
1913.000000	0.007952
1912.000000	0.008137
1911.000000	0.008343
1910.000000	0.008514
1909.000000	0.008659
1908.000000	0.008791
1907.000000	0.008852
1906.000000	0.008865
1905.000000	0.008908
1904.000000	0.008986
1903.000000	0.009052
1902.000000	0.009100
1901.000000	0.009163
1900.000000	0.009246
1899.000000	0.009307
1898.000000	0.009386
1897.000000	0.009551
1896.000000	0.009742
1895.000000	0.009838
1894.000000	0.009871
1893.000000	0.010008
1892.000000	0.010299
1891.000000	0.010600
1890.000000	0.010781
1889.000000	0.010871
1888.000000	0.010938
1887.000000	0.010999
1886.000000	0.011075
1885.000000	0.011208
1884.000000	0.011384
1883.000000	0.011551
1882.000000	0.011713
1881.000000	0.011916
1880.000000	0.012156
1879.000000	0.012360
1878.000000	0.012523
1877.000000	0.012733
1876.000000	0.012985
1875.000000	0.013174
1874.000000	0.013324
1873.000000	0.013607
1872.000000	0.014118
1871.000000	0.014727
1870.000000	0.015235
1869.000000	0.015569
1868.000000	0.015752
1867.000000	0.015816
1866.000000	0.015837
1865.000000	0.015914
1864.000000	0.016054
1863.000000	0.016204
1862.000000	0.016370
1861.000000	0.016603
1860.000000	0.016878
1859.000000	0.017113
1858.000000	0.017312
1857.000000	0.017551
1856.000000	0.017834
1855.000000	0.018088
1854.000000	0.018313
1853.000000	0.018558
1852.000000	0.018878
1851.000000	0.019235
1850.000000	0.019597
1849.000000	0.020032
1848.000000	0.020624
1847.000000	0.021371
1846.000000	0.022144
1845.000000	0.022763
1844.000000	0.023166
1843.000000	0.023447
1842.000000	0.023721
1841.000000	0.024066
1840.000000	0.024460
1839.000000	0.024836
1838.000000	0.025258
1837.000000	0.025803
1836.000000	0.026385
1835.000000	0.026906
1834.000000	0.027470
1833.000000	0.028269
1832.000000	0.029281
1831.000000	0.030163
1830.000000	0.030740
1829.000000	0.031270
1828.000000	0.032021
1827.000000	0.032938
1826.000000	0.033813
1825.000000	0.034578
1824.000000	0.035269
1823.000000	0.035885
1822.000000	0.036459
1821.000000	0.037116
1820.000000	0.037927
1819.000000	0.038817
1818.000000	0.039734
1817.000000	0.040675
1816.000000	0.041591
1815.000000	0.042464
1814.000000	0.043394
1813.000000	0.044525
1812.000000	0.045757
1811.000000	0.046864
1810.000000	0.047869
1809.000000	0.048953
1808.000000	0.050114
1807.000000	0.051198
1806.000000	0.052234
1805.000000	0.053447
1804.000000	0.054956
1803.000000	0.056660
1802.000000	0.058345
1801.000000	0.059893
1800.000000	0.061233
1799.000000	0.062397
1798.000000	0.063598
1797.000000	0.065042
1796.000000	0.066724
1795.000000	0.068536
1794.000000	0.070444
1793.000000	0.072543
1792.000000	0.074786
1791.000000	0.076891
1790.000000	0.078715
1789.000000	0.080457
1788.000000	0.082369
1787.000000	0.084550
1786.000000	0.087021
1785.000000	0.089710
1784.000000	0.092434
1783.000000	0.095130
1782.000000	0.097865
1781.000000	0.100831
1780.000000	0.104046
1779.000000	0.107362
1778.000000	0.110741
1777.000000	0.114284
1776.000000	0.118110
1775.000000	0.122281
1774.000000	0.126836
1773.000000	0.131859
1772.000000	0.137376
1771.000000	0.143110
1770.000000	0.148933
1769.000000	0.155049
1768.000000	0.161427
1767.000000	0.167736
1766.000000	0.173890
1765.000000	0.180299
1764.000000	0.187367
1763.000000	0.195145
1762.000000	0.203412
1761.000000	0.211863
1760.000000	0.220102
1759.000000	0.228059
1758.000000	0.236037
1757.000000	0.244215
1756.000000	0.252251
1755.000000	0.259615
1754.000000	0.266474
1753.000000	0.273527
1752.000000	0.281077
1751.000000	0.288606
1750.000000	0.295482
1749.000000	0.301504
1748.000000	0.306724
1747.000000	0.311251
1746.000000	0.315331
1745.000000	0.319250
1744.000000	0.322924
1743.000000	0.326039
1742.000000	0.328598
1741.000000	0.330816
1740.000000	0.332550
1739.000000	0.333623
1738.000000	0.334297
1737.000000	0.335071
1736.000000	0.335926
1735.000000	0.336128
1734.000000	0.335552
1733.000000	0.334852
1732.000000	0.334048
1731.000000	0.332801
1730.000000	0.331135
1729.000000	0.329362
1728.000000	0.327688
1727.000000	0.326074
1726.000000	0.324537
1725.000000	0.323231
1724.000000	0.322017
1723.000000	0.320650
1722.000000	0.319314
1721.000000	0.318411
1720.000000	0.317912
1719.000000	0.317269
1718.000000	0.316401
1717.000000	0.315848
1716.000000	0.315534
1715.000000	0.314888
1714.000000	0.313923
1713.000000	0.313099
1712.000000	0.312578
1711.000000	0.312217
1710.000000	0.312049
1709.000000	0.312349
1708.000000	0.313188
1707.000000	0.314241
1706.000000	0.315349
1705.000000	0.316745
1704.000000	0.318564
1703.000000	0.320888
1702.000000	0.323868
1701.000000	0.327327
1700.000000	0.331065
1699.000000	0.334676
1698.000000	0.338166
1697.000000	0.342178
1696.000000	0.346752
1695.000000	0.351366
1694.000000	0.355595
1693.000000	0.359592
1692.000000	0.363712
1691.000000	0.368110
1690.000000	0.372821
1689.000000	0.377709
1688.000000	0.382575
1687.000000	0.387499
1686.000000	0.393106
1685.000000	0.399977
1684.000000	0.407868
1683.000000	0.415297
1682.000000	0.421425
1681.000000	0.427019
1680.000000	0.432768
1679.000000	0.438671
1678.000000	0.444834
1677.000000	0.451817
1676.000000	0.459849
1675.000000	0.468288
1674.000000	0.476227
1673.000000	0.483660
1672.000000	0.491142
1671.000000	0.499024
1670.000000	0.507483
1669.000000	0.516456
1668.000000	0.525189
1667.000000	0.532843
1666.000000	0.539672
1665.000000	0.546740
1664.000000	0.554554
1663.000000	0.562694
1662.000000	0.570508
1661.000000	0.577822
1660.000000	0.584674
1659.000000	0.590820
1658.000000	0.596174
1657.000000	0.601218
1656.000000	0.606653
1655.000000	0.612640
1654.000000	0.618889
1653.000000	0.625681
1652.000000	0.632192
1651.000000	0.636631
1650.000000	0.639551
1649.000000	0.642656
1648.000000	0.646739
1647.000000	0.651325
1646.000000	0.655675
1645.000000	0.659718
1644.000000	0.663493
1643.000000	0.666865
1642.000000	0.669960
1641.000000	0.673283
1640.000000	0.677024
1639.000000	0.680779
1638.000000	0.684474
1637.000000	0.688607
1636.000000	0.693366
1635.000000	0.697814
1634.000000	0.701110
1633.000000	0.703634
1632.000000	0.705965
1631.000000	0.708070
1630.000000	0.709830
1629.000000	0.711482
1628.000000	0.713130
1627.000000	0.714442
1626.000000	0.715240
1625.000000	0.715887
1624.000000	0.716483
1623.000000	0.716525
1622.000000	0.715731
1621.000000	0.714549
1620.000000	0.713402
1619.000000	0.711953
1618.000000	0.709468
1617.000000	0.705793
1616.000000	0.701513
1615.000000	0.696824
1614.000000	0.691517
1613.000000	0.685644
1612.000000	0.679303
1611.000000	0.672387
1610.000000	0.664835
1609.000000	0.656905
1608.000000	0.648817
1607.000000	0.640480
1606.000000	0.631687
1605.000000	0.622519
1604.000000	0.613151
1603.000000	0.603451
1602.000000	0.593279
1601.000000	0.582845
1600.000000	0.572455
1599.000000	0.562110
1598.000000	0.551614
1597.000000	0.540940
1596.000000	0.530141
1595.000000	0.519106
1594.000000	0.507688
1593.000000	0.495930
1592.000000	0.483968
1591.000000	0.471791
1590.000000	0.459316
1589.000000	0.446648
1588.000000	0.434019
1587.000000	0.421558
1586.000000	0.409276
1585.000000	0.397202
1584.000000	0.385513
1583.000000	0.374257
1582.000000	0.363320
1581.000000	0.352803
1580.000000	0.343154
1579.000000	0.334508
1578.000000	0.326153
1577.000000	0.316952
1576.000000	0.306954
1575.000000	0.297775
1574.000000	0.290364
1573.000000	0.284307
1572.000000	0.278770
1571.000000	0.272972
1570.000000	0.266630
1569.000000	0.260276
1568.000000	0.254757
1567.000000	0.250260
1566.000000	0.246271
1565.000000	0.242242
1564.000000	0.238354
1563.000000	0.235304
1562.000000	0.233574
1561.000000	0.232732
1560.000000	0.231219
1559.000000	0.228420
1558.000000	0.225698
1557.000000	0.223837
1556.000000	0.222625
1555.000000	0.221733
1554.000000	0.220876
1553.000000	0.220149
1552.000000	0.219841
1551.000000	0.219937
1550.000000	0.220112
1549.000000	0.220044
1548.000000	0.219897
1547.000000	0.220124
1546.000000	0.220850
1545.000000	0.221740
1544.000000	0.222508
1543.000000	0.223202
1542.000000	0.224043
1541.000000	0.224930
1540.000000	0.225677
1539.000000	0.226497
1538.000000	0.227588
1537.000000	0.228947
1536.000000	0.230696
1535.000000	0.232999
1534.000000	0.235722
1533.000000	0.238584
1532.000000	0.241293
1531.000000	0.243854
1530.000000	0.246578
1529.000000	0.249612
1528.000000	0.252896
1527.000000	0.256357
1526.000000	0.259836
1525.000000	0.263158
1524.000000	0.266519
1523.000000	0.270490
1522.000000	0.275470
1521.000000	0.281040
1520.000000	0.286260
1519.000000	0.290874
1518.000000	0.295262
1517.000000	0.299400
1516.000000	0.302706
1515.000000	0.304804
1514.000000	0.305778
1513.000000	0.305771
1512.000000	0.304783
1511.000000	0.303099
1510.000000	0.301216
1509.000000	0.299197
1508.000000	0.296102
1507.000000	0.290683
1506.000000	0.283417
1505.000000	0.276255
1504.000000	0.270069
1503.000000	0.264490
1502.000000	0.259052
1501.000000	0.253541
1500.000000	0.247982
1499.000000	0.242464
1498.000000	0.237040
1497.000000	0.231788
1496.000000	0.226835
1495.000000	0.222489
1494.000000	0.219118
1493.000000	0.216893
1492.000000	0.215632
1491.000000	0.214994
1490.000000	0.214859
1489.000000	0.215254
1488.000000	0.215994
1487.000000	0.216980
1486.000000	0.218465
1485.000000	0.220645
1484.000000	0.223568
1483.000000	0.227199
1482.000000	0.231566
1481.000000	0.236632
1480.000000	0.242202
1479.000000	0.248254
1478.000000	0.255085
1477.000000	0.262887
1476.000000	0.271404
1475.000000	0.280571
1474.000000	0.290932
1473.000000	0.302876
1472.000000	0.315505
1471.000000	0.327294
1470.000000	0.337834
1469.000000	0.347661
1468.000000	0.357109
1467.000000	0.366185
1466.000000	0.374743
1465.000000	0.382369
1464.000000	0.388502
1463.000000	0.393020
1462.000000	0.396528
1461.000000	0.399723
1460.000000	0.403049
1459.000000	0.406841
1458.000000	0.411314
1457.000000	0.415958
1456.000000	0.419514
1455.000000	0.421461
1454.000000	0.422416
1453.000000	0.423018
1452.000000	0.423456
1451.000000	0.423799
1450.000000	0.424196
1449.000000	0.424656
1448.000000	0.424933
1447.000000	0.424962
1446.000000	0.424910
1445.000000	0.424988
1444.000000	0.425313
1443.000000	0.425882
1442.000000	0.426701
1441.000000	0.427757
1440.000000	0.429113
1439.000000	0.430954
1438.000000	0.433466
1437.000000	0.436404
1436.000000	0.439071
1435.000000	0.441052
1434.000000	0.442701
1433.000000	0.444555
1432.000000	0.446738
1431.000000	0.449077
1430.000000	0.451395
1429.000000	0.453512
1428.000000	0.455199
1427.000000	0.456515
1426.000000	0.457686
1425.000000	0.458698
1424.000000	0.459278
1423.000000	0.459311
1422.000000	0.459110
1421.000000	0.458936
1420.000000	0.458537
1419.000000	0.457491
1418.000000	0.455784
1417.000000	0.453632
1416.000000	0.451171
1415.000000	0.448576
1414.000000	0.446126
1413.000000	0.444003
1412.000000	0.442147
1411.000000	0.440413
1410.000000	0.438779
1409.000000	0.437296
1408.000000	0.435955
1407.000000	0.434809
1406.000000	0.433890
1405.000000	0.433036
1404.000000	0.432049
1403.000000	0.431001
1402.000000	0.430222
1401.000000	0.429874
1400.000000	0.429819
1399.000000	0.429892
1398.000000	0.430126
1397.000000	0.430647
1396.000000	0.431475
1395.000000	0.432530
1394.000000	0.433679
1393.000000	0.434865
1392.000000	0.436209
1391.000000	0.437959
1390.000000	0.440368
1389.000000	0.443506
1388.000000	0.447138
1387.000000	0.450838
1386.000000	0.454292
1385.000000	0.457489
1384.000000	0.460619
1383.000000	0.463809
1382.000000	0.467056
1381.000000	0.470240
1380.000000	0.473200
1379.000000	0.475815
1378.000000	0.478042
1377.000000	0.479896
1376.000000	0.481428
1375.000000	0.482679
1374.000000	0.483571
1373.000000	0.483919
1372.000000	0.483628
1371.000000	0.482823
1370.000000	0.481634
1369.000000	0.479986
1368.000000	0.477738
1367.000000	0.474979
1366.000000	0.472030
1365.000000	0.469121
1364.000000	0.466225
1363.000000	0.463189
1362.000000	0.459918
1361.000000	0.456404
1360.000000	0.452765
1359.000000	0.449250
1358.000000	0.446093
1357.000000	0.443360
1356.000000	0.440990
1355.000000	0.438966
1354.000000	0.437340
1353.000000	0.436128
1352.000000	0.435290
1351.000000	0.434881
1350.000000	0.434999
1349.000000	0.435661
1348.000000	0.436839
1347.000000	0.438562
1346.000000	0.440885
1345.000000	0.443741
1344.000000	0.447008
1343.000000	0.450696
1342.000000	0.454933
1341.000000	0.459735
1340.000000	0.464884
1339.000000	0.470069
1338.000000	0.475102
1337.000000	0.479946
1336.000000	0.484634
1335.000000	0.489231
1334.000000	0.493819
1333.000000	0.498407
1332.000000	0.502910
1331.000000	0.507260
1330.000000	0.511465
1329.000000	0.515542
1328.000000	0.519477
1327.000000	0.523324
1326.000000	0.527238
1325.000000	0.531345
1324.000000	0.535687
1323.000000	0.540311
1322.000000	0.545309
1321.000000	0.550636
1320.000000	0.555961
1319.000000	0.560747
1318.000000	0.564386
1317.000000	0.566275
1316.000000	0.565889
1315.000000	0.562971
1314.000000	0.557660
1313.000000	0.550354
1312.000000	0.541620
1311.000000	0.532183
1310.000000	0.522758
1309.000000	0.513795
1308.000000	0.505441
1307.000000	0.497771
1306.000000	0.490888
1305.000000	0.484804
1304.000000	0.479413
1303.000000	0.474635
1302.000000	0.470436
1301.000000	0.466741
1300.000000	0.463457
1299.000000	0.460595
1298.000000	0.458272
1297.000000	0.456559
1296.000000	0.455440
1295.000000	0.454925
1294.000000	0.455038
1293.000000	0.455729
1292.000000	0.456892
1291.000000	0.458487
1290.000000	0.460549
1289.000000	0.463044
1288.000000	0.465821
1287.000000	0.468736
1286.000000	0.471710
1285.000000	0.474654
1284.000000	0.477441
1283.000000	0.479981
1282.000000	0.482266
1281.000000	0.484320
1280.000000	0.486179
1279.000000	0.487962
1278.000000	0.489824
1277.000000	0.491818
1276.000000	0.493872
1275.000000	0.495921
1274.000000	0.497968
1273.000000	0.499989
1272.000000	0.501884
1271.000000	0.503587
1270.000000	0.505121
1269.000000	0.506496
1268.000000	0.507661
1267.000000	0.508584
1266.000000	0.509296
1265.000000	0.509810
1264.000000	0.510105
1263.000000	0.510206
1262.000000	0.510197
1261.000000	0.510101
1260.000000	0.509876
1259.000000	0.509540
1258.000000	0.509190
1257.000000	0.508871
1256.000000	0.508543
1255.000000	0.508215
1254.000000	0.507980
1253.000000	0.507888
1252.000000	0.507891
1251.000000	0.507938
1250.000000	0.508028
1249.000000	0.508133
1248.000000	0.508171
1247.000000	0.508100
1246.000000	0.507944
1245.000000	0.507697
1244.000000	0.507310
1243.000000	0.506779
1242.000000	0.506130
1241.000000	0.505321
1240.000000	0.504260
1239.000000	0.502948
1238.000000	0.501493
1237.000000	0.499943
1236.000000	0.498227
1235.000000	0.496278
1234.000000	0.494095
1233.000000	0.491667
1232.000000	0.488948
1231.000000	0.485941
1230.000000	0.482706
1229.000000	0.479262
1228.000000	0.475600
1227.000000	0.471778
1226.000000	0.467896
1225.000000	0.463987
1224.000000	0.460024
1223.000000	0.456052
1222.000000	0.452178
1221.000000	0.448445
1220.000000	0.444829
1219.000000	0.441348
1218.000000	0.438060
1217.000000	0.434968
1216.000000	0.432026
1215.000000	0.429232
1214.000000	0.426623
1213.000000	0.424200
1212.000000	0.421947
1211.000000	0.419909
1210.000000	0.418133
1209.000000	0.416571
1208.000000	0.415112
1207.000000	0.413702
1206.000000	0.412331
1205.000000	0.410939
1204.000000	0.409436
1203.000000	0.407794
1202.000000	0.406034
1201.000000	0.404144
1200.000000	0.402104
1199.000000	0.399973
1198.000000	0.397857
1197.000000	0.395837
1196.000000	0.394002
1195.000000	0.392495
1194.000000	0.391463
1193.000000	0.390961
1192.000000	0.391005
1191.000000	0.391676
1190.000000	0.393058
1189.000000	0.395158
1188.000000	0.397937
1187.000000	0.401393
1186.000000	0.405545
1185.000000	0.410346
1184.000000	0.415758
1183.000000	0.421876
1182.000000	0.428882
1181.000000	0.436880
1180.000000	0.445791
1179.000000	0.455458
1178.000000	0.465790
1177.000000	0.476792
1176.000000	0.488569
1175.000000	0.501270
1174.000000	0.515019
1173.000000	0.529836
1172.000000	0.545632
1171.000000	0.562329
1170.000000	0.579884
1169.000000	0.598175
1168.000000	0.616918
1167.000000	0.635766
1166.000000	0.654400
1165.000000	0.672469
1164.000000	0.689487
1163.000000	0.704978
1162.000000	0.718769
1161.000000	0.730845
1160.000000	0.741184
1159.000000	0.749843
1158.000000	0.757022
1157.000000	0.762934
1156.000000	0.767539
1155.000000	0.770799
1154.000000	0.772945
1153.000000	0.774227
1152.000000	0.774697
1151.000000	0.774354
1150.000000	0.773394
1149.000000	0.772027
1148.000000	0.770220
1147.000000	0.767918
1146.000000	0.765257
1145.000000	0.762396
1144.000000	0.759340
1143.000000	0.756136
1142.000000	0.753049
1141.000000	0.750330
1140.000000	0.748019
1139.000000	0.746176
1138.000000	0.745095
1137.000000	0.745040
1136.000000	0.746023
1135.000000	0.748002
1134.000000	0.751078
1133.000000	0.755347
1132.000000	0.760660
1131.000000	0.766788
1130.000000	0.773665
1129.000000	0.781209
1128.000000	0.789149
1127.000000	0.797220
1126.000000	0.805405
1125.000000	0.813738
1124.000000	0.822036
1123.000000	0.830115
1122.000000	0.838089
1121.000000	0.846171
1120.000000	0.854341
1119.000000	0.862537
1118.000000	0.870956
1117.000000	0.879810
1116.000000	0.888968
1115.000000	0.898144
1114.000000	0.907271
1113.000000	0.916290
1112.000000	0.924817
1111.000000	0.932465
1110.000000	0.939258
1109.000000	0.945374
1108.000000	0.950650
1107.000000	0.954842
1106.000000	0.958108
1105.000000	0.960682
1104.000000	0.962452
1103.000000	0.963269
1102.000000	0.963434
1101.000000	0.963406
1100.000000	0.963286
1099.000000	0.963089
1098.000000	0.963180
1097.000000	0.963961
1096.000000	0.965415
1095.000000	0.967429
1094.000000	0.970239
1093.000000	0.974147
1092.000000	0.979083
1091.000000	0.984867
1090.000000	0.991662
1089.000000	0.999625
1088.000000	1.008433
1087.000000	1.017665
1086.000000	1.027333
1085.000000	1.037558
1084.000000	1.047988
1083.000000	1.058143
1082.000000	1.068017
1081.000000	1.077718
1080.000000	1.086748
1079.000000	1.094375
1078.000000	1.100411
1077.000000	1.104866
1076.000000	1.107388
1075.000000	1.107706
1074.000000	1.106312
1073.000000	1.103962
1072.000000	1.100886
1071.000000	1.097297
1070.000000	1.094027
1069.000000	1.091968
1068.000000	1.091300
1067.000000	1.091923
1066.000000	1.094113
1065.000000	1.098147
1064.000000	1.103667
1063.000000	1.110067
1062.000000	1.117196
1061.000000	1.124967
1060.000000	1.132760
1059.000000	1.139953
1058.000000	1.146670
1057.000000	1.153235
1056.000000	1.159341
1055.000000	1.164523
1054.000000	1.169009
1053.000000	1.173259
1052.000000	1.177060
1051.000000	1.180037
1050.000000	1.182558
1049.000000	1.185156
1048.000000	1.187628
1047.000000	1.189608
1046.000000	1.191472
1045.000000	1.193779
1044.000000	1.196415
1043.000000	1.199134
1042.000000	1.202327
1041.000000	1.206400
1040.000000	1.210939
1039.000000	1.215366
1038.000000	1.219821
1037.000000	1.224506
1036.000000	1.228788
1035.000000	1.231937
1034.000000	1.234164
1033.000000	1.235961
1032.000000	1.237019
1031.000000	1.236810
1030.000000	1.235685
1029.000000	1.234243
1028.000000	1.232346
1027.000000	1.229623
1026.000000	1.226366
1025.000000	1.222979
1024.000000	1.219117
1023.000000	1.214333
1022.000000	1.208924
1021.000000	1.203279
1020.000000	1.197053
1019.000000	1.189776
1018.000000	1.181685
1017.000000	1.173160
1016.000000	1.163951
1015.000000	1.153774
1014.000000	1.142955
1013.000000	1.131850
1012.000000	1.120246
1011.000000	1.107921
1010.000000	1.095268
1009.000000	1.082687
1008.000000	1.069992
1007.000000	1.056913
1006.000000	1.043625
1005.000000	1.030380
1004.000000	1.017090
1003.000000	1.003703
1002.000000	0.990484
1001.000000	0.977517
1000.000000	0.964456
999.000000	0.951064
998.000000	0.937567
997.000000	0.924189
996.000000	0.910723
995.000000	0.896915
994.000000	0.882777
993.000000	0.868257
992.000000	0.853048
991.000000	0.836904
990.000000	0.819907
989.000000	0.802135
988.000000	0.783422
987.000000	0.763686
986.000000	0.743044
985.000000	0.721603
984.000000	0.699353
983.000000	0.676386
982.000000	0.653034
981.000000	0.629587
980.000000	0.606226
979.000000	0.583194
978.000000	0.560763
977.000000	0.539084
976.000000	0.518191
975.000000	0.498188
974.000000	0.479230
973.000000	0.461353
972.000000	0.444496
971.000000	0.428641
970.000000	0.413791
969.000000	0.399850
968.000000	0.386699
967.000000	0.374285
966.000000	0.362570
965.000000	0.351448
964.000000	0.340812
963.000000	0.330646
962.000000	0.320922
961.000000	0.311535
960.000000	0.302419
959.000000	0.293627
958.000000	0.285214
957.000000	0.277123
956.000000	0.269292
955.000000	0.261755
954.000000	0.254544
953.000000	0.247611
952.000000	0.240927
951.000000	0.234561
950.000000	0.228587
949.000000	0.223008
948.000000	0.217882
947.000000	0.213349
946.000000	0.209470
945.000000	0.206150
944.000000	0.203263
943.000000	0.200758
942.000000	0.198545
941.000000	0.196439
940.000000	0.194310
939.000000	0.192165
938.000000	0.190035
937.000000	0.187877
936.000000	0.185678
935.000000	0.183518
934.000000	0.181455
933.000000	0.179462
932.000000	0.177542
931.000000	0.175775
930.000000	0.174188
929.000000	0.172689
928.000000	0.171211
927.000000	0.169773
926.000000	0.168348
925.000000	0.166800
924.000000	0.165026
923.000000	0.163049
922.000000	0.160889
921.000000	0.158493
920.000000	0.155833
919.000000	0.152972
918.000000	0.149944
917.000000	0.146699
916.000000	0.143238
915.000000	0.139640
914.000000	0.135909
913.000000	0.131936
912.000000	0.127677
911.000000	0.123246
910.000000	0.118746
909.000000	0.114193
908.000000	0.109657
907.000000	0.105324
906.000000	0.101339
905.000000	0.097722
904.000000	0.094503
903.000000	0.091773
902.000000	0.089539
901.000000	0.087657
900.000000	0.086002
899.000000	0.084525
898.000000	0.083111
897.000000	0.081550
896.000000	0.079725
895.000000	0.077683
894.000000	0.075459
893.000000	0.072991
892.000000	0.070261
891.000000	0.067361
890.000000	0.064337
889.000000	0.061121
888.000000	0.057705
887.000000	0.054198
886.000000	0.050687
885.000000	0.047179
884.000000	0.043742
883.000000	0.040538
882.000000	0.037633
881.000000	0.034955
880.000000	0.032487
879.000000	0.030339
878.000000	0.028548
877.000000	0.027020
876.000000	0.025716
875.000000	0.024714
874.000000	0.024026
873.000000	0.023519
872.000000	0.023105
871.000000	0.022825
870.000000	0.022691
869.000000	0.022636
868.000000	0.022657
867.000000	0.022838
866.000000	0.023147
865.000000	0.023405
864.000000	0.023490
863.000000	0.023425
862.000000	0.023207
861.000000	0.022754
860.000000	0.022081
859.000000	0.021337
858.000000	0.020603
857.000000	0.019799
856.000000	0.018859
855.000000	0.017821
854.000000	0.016687
853.000000	0.015382
852.000000	0.013915
851.000000	0.012415
850.000000	0.010943
849.000000	0.009450
848.000000	0.007961
847.000000	0.006624
846.000000	0.005512
845.000000	0.004562
844.000000	0.003776
843.000000	0.003295
842.000000	0.003201
841.000000	0.003429
840.000000	0.003914
839.000000	0.004679
838.000000	0.005685
837.000000	0.006782
836.000000	0.007859
835.000000	0.008870
834.000000	0.009671
833.000000	0.010009
832.000000	0.009762
831.000000	0.009035
830.000000	0.007980
829.000000	0.006701
828.000000	0.005398
827.000000	0.004382
826.000000	0.003826
825.000000	0.003663
824.000000	0.003784
823.000000	0.004170
822.000000	0.004754
821.000000	0.005392
820.000000	0.006036
819.000000	0.006765
818.000000	0.007587
817.000000	0.008392
816.000000	0.009141
815.000000	0.009912
814.000000	0.010714
813.000000	0.011455
812.000000	0.012159
811.000000	0.013034
810.000000	0.014244
809.000000	0.015788
808.000000	0.017649
807.000000	0.019882
806.000000	0.022483
805.000000	0.025336
804.000000	0.028383
803.000000	0.031667
802.000000	0.035154
801.000000	0.038667
800.000000	0.042043
799.000000	0.045196
798.000000	0.047979
797.000000	0.050202
796.000000	0.051878
795.000000	0.053294
794.000000	0.054778
793.000000	0.056560
792.000000	0.058895
791.000000	0.062128
790.000000	0.066534
789.000000	0.072253
788.000000	0.079461
787.000000	0.088390
786.000000	0.099065
785.000000	0.111056
784.000000	0.123478
783.000000	0.135041
782.000000	0.144165
781.000000	0.149410
780.000000	0.150189
779.000000	0.147102
778.000000	0.141498
777.000000	0.134845
776.000000	0.128363
775.000000	0.122865
774.000000	0.118632
773.000000	0.115487
772.000000	0.113133
771.000000	0.111369
770.000000	0.110043
769.000000	0.109018
768.000000	0.108283
767.000000	0.107901
766.000000	0.107773
765.000000	0.107596
764.000000	0.107114
763.000000	0.106249
762.000000	0.104929
761.000000	0.103004
760.000000	0.100420
759.000000	0.097313
758.000000	0.093824
757.000000	0.089978
756.000000	0.085821
755.000000	0.081493
754.000000	0.077100
753.000000	0.072658
752.000000	0.068253
751.000000	0.064064
750.000000	0.060163
749.000000	0.056469
748.000000	0.052943
747.000000	0.049670
746.000000	0.046677
745.000000	0.043866
744.000000	0.041205
743.000000	0.038817
742.000000	0.036795
741.000000	0.035093
740.000000	0.033673
739.000000	0.032584
738.000000	0.031842
737.000000	0.031381
736.000000	0.031199
735.000000	0.031397
734.000000	0.032000
733.000000	0.032905
732.000000	0.034050
731.000000	0.035467
730.000000	0.037120
729.000000	0.038861
728.000000	0.040640
727.000000	0.042572
726.000000	0.044750
725.000000	0.047127
724.000000	0.049647
723.000000	0.052337
722.000000	0.055191
721.000000	0.058119
720.000000	0.061077
719.000000	0.064111
718.000000	0.067217
717.000000	0.070299
716.000000	0.073328
715.000000	0.076368
714.000000	0.079374
713.000000	0.082152
712.000000	0.084590
711.000000	0.086772
710.000000	0.088789
709.000000	0.090584
708.000000	0.092100
707.000000	0.093393
706.000000	0.094520
705.000000	0.095467
704.000000	0.096265
703.000000	0.097042
702.000000	0.097881
701.000000	0.098774
700.000000	0.099792
699.000000	0.101112
698.000000	0.102773
697.000000	0.104570
696.000000	0.106267
695.000000	0.107767
694.000000	0.108982
693.000000	0.109756
692.000000	0.110066
691.000000	0.110132
690.000000	0.110185
689.000000	0.110302
688.000000	0.110529
687.000000	0.110991
686.000000	0.111739
685.000000	0.112684
684.000000	0.113806
683.000000	0.115239
682.000000	0.117026
681.000000	0.119018
680.000000	0.121123
679.000000	0.123469
678.000000	0.126134
677.000000	0.128964
676.000000	0.131790
675.000000	0.134585
674.000000	0.137355
673.000000	0.139973
672.000000	0.142201
671.000000	0.143874
670.000000	0.145072
669.000000	0.146123
668.000000	0.147284
667.000000	0.148674
666.000000	0.150274
665.000000	0.151686
664.000000	0.152596
663.000000	0.153092
662.000000	0.153337
661.000000	0.153326
660.000000	0.153041
659.000000	0.152642
658.000000	0.152313
657.000000	0.152118
656.000000	0.152108
655.000000	0.152355
654.000000	0.152866
653.000000	0.153593
652.000000	0.154518
651.000000	0.155666
650.000000	0.157004
649.000000	0.158449
648.000000	0.159990
647.000000	0.161687
646.000000	0.163502
645.000000	0.165269
644.000000	0.166868
643.000000	0.168336
642.000000	0.169748
641.000000	0.171099
640.000000	0.172371
639.000000	0.173609
638.000000	0.174864
637.000000	0.176135
636.000000	0.177419
635.000000	0.178711
634.000000	0.179956
633.000000	0.181083
632.000000	0.182151
631.000000	0.183337
630.000000	0.184734
629.000000	0.186286
628.000000	0.187960
627.000000	0.189824
626.000000	0.191917
625.000000	0.194150
624.000000	0.196454
623.000000	0.198866
622.000000	0.201395
621.000000	0.203895
620.000000	0.206170
619.000000	0.208107
618.000000	0.209666
617.000000	0.210849
616.000000	0.211772
615.000000	0.212634
614.000000	0.213531
613.000000	0.214383
612.000000	0.215086
611.000000	0.215628
610.000000	0.215974
609.000000	0.215999
608.000000	0.215632
607.000000	0.214982
606.000000	0.214228
605.000000	0.213456
604.000000	0.212696
603.000000	0.211999
602.000000	0.211354
601.000000	0.210672
600.000000	0.209968
599.000000	0.209420
598.000000	0.209134
597.000000	0.208999
596.000000	0.208898
595.000000	0.208887
594.000000	0.209054
593.000000	0.209335
592.000000	0.209649
591.000000	0.210068
590.000000	0.210734
589.000000	0.211712
588.000000	0.213030
587.000000	0.214734
586.000000	0.216756
585.000000	0.218890
584.000000	0.221003
583.000000	0.223145
582.000000	0.225335
581.000000	0.227392
580.000000	0.229124
579.000000	0.230531
578.000000	0.231708
577.000000	0.232606
576.000000	0.233092
575.000000	0.233143
574.000000	0.232857
573.000000	0.232332
572.000000	0.231626
571.000000	0.230797
570.000000	0.229872
569.000000	0.228852
568.000000	0.227847
567.000000	0.227084
566.000000	0.226682
565.000000	0.226541
564.000000	0.226552
563.000000	0.226734
562.000000	0.227047
561.000000	0.227269
560.000000	0.227208
559.000000	0.226905
558.000000	0.226478
557.000000	0.225946
556.000000	0.225337
555.000000	0.224801
554.000000	0.224461
553.000000	0.224292
552.000000	0.224301
551.000000	0.224618
550.000000	0.225288
549.000000	0.226180
548.000000	0.227265
547.000000	0.228757
546.000000	0.230809
545.000000	0.233267
544.000000	0.235948
543.000000	0.238929
542.000000	0.242370
541.000000	0.246264
540.000000	0.250486
539.000000	0.254928
538.000000	0.259404
537.000000	0.263592
536.000000	0.267216
535.000000	0.270189
534.000000	0.272507
533.000000	0.274175
532.000000	0.275299
531.000000	0.276085
530.000000	0.276630
529.000000	0.276834
528.000000	0.276626
527.000000	0.276142
526.000000	0.275563
525.000000	0.274912
524.000000	0.274160
523.000000	0.273405
522.000000	0.272737
521.000000	0.272012
520.000000	0.270968
519.000000	0.269433
518.000000	0.267300
517.000000	0.264471
516.000000	0.261006
515.000000	0.257198
514.000000	0.253247
513.000000	0.248983
512.000000	0.244185
511.000000	0.239025
510.000000	0.233895
509.000000	0.228919
508.000000	0.223989
507.000000	0.219192
506.000000	0.214735
505.000000	0.210440
504.000000	0.205761
503.000000	0.200527
502.000000	0.195450
501.000000	0.191637
500.000000	0.189590
499.000000	0.188806
498.000000	0.188231
497.000000	0.187132
496.000000	0.185646
495.000000	0.184427
494.000000	0.183831
493.000000	0.183685
492.000000	0.183781
491.000000	0.184172
490.000000	0.184926
489.000000	0.185970
488.000000	0.187326
487.000000	0.189116
486.000000	0.191235
485.000000	0.193408
484.000000	0.195644
483.000000	0.198212
482.000000	0.201029
481.000000	0.203589
480.000000	0.205627
479.000000	0.207377
478.000000	0.208982
477.000000	0.210187
476.000000	0.210811
475.000000	0.211066
474.000000	0.211170
473.000000	0.210967
472.000000	0.210217
471.000000	0.208928
470.000000	0.207098
469.000000	0.204548
468.000000	0.201212
467.000000	0.197328
466.000000	0.193101
465.000000	0.188512
464.000000	0.183696
463.000000	0.179068
462.000000	0.174797
461.000000	0.170567
460.000000	0.166152
459.000000	0.161749
458.000000	0.157411
457.000000	0.152741
456.000000	0.147638
455.000000	0.142684
454.000000	0.138252
453.000000	0.134014
452.000000	0.129696
451.000000	0.125631
450.000000	0.122160
449.000000	0.119054
448.000000	0.116084
447.000000	0.113497
446.000000	0.111372
445.000000	0.109184
444.000000	0.106542
443.000000	0.103768
442.000000	0.101237
441.000000	0.098797
440.000000	0.096396
439.000000	0.094475
438.000000	0.093153
437.000000	0.091792
436.000000	0.089941
435.000000	0.088005
434.000000	0.086332
433.000000	0.084528
432.000000	0.082309
431.000000	0.080093
430.000000	0.078054
429.000000	0.075595
428.000000	0.072470
427.000000	0.069445
426.000000	0.067049
425.000000	0.064648
424.000000	0.061637
423.000000	0.058522
422.000000	0.055878
421.000000	0.053295
420.000000	0.050291
419.000000	0.047294
418.000000	0.044408
417.000000	0.040717
416.000000	0.036306
415.000000	0.032503
414.000000	0.029693
413.000000	0.026559
412.000000	0.022267
411.000000	0.017958
410.000000	0.014627
409.000000	0.011429
408.000000	0.007564
407.000000	0.004032
406.000000	0.001756
405.000000	-0.000122
404.000000	-0.001836
403.000000	-0.001599
402.000000	0.001681
401.000000	0.006078
400.000000	0.009653
