PE IR       SUBTECH     SPECTRUM    ASCII       PEDS        4.00        
   -1
G001-90C.asc
17/02/23
10:57:13.00
17/02/23
10:58:03.00
Administrator
Sample 125 By Administrator Date Thursday, February 23 2017
400.000000
#HDR
-1
-1
#GR
cm-1
A
1.0
0.0
4000.000000
-1.000000
3601
8
1.237877
-0.002464
#DATA
4000.000000	0.005141
3999.000000	0.005278
3998.000000	0.005430
3997.000000	0.005587
3996.000000	0.005744
3995.000000	0.005903
3994.000000	0.006078
3993.000000	0.006265
3992.000000	0.006444
3991.000000	0.006589
3990.000000	0.006698
3989.000000	0.006789
3988.000000	0.006880
3987.000000	0.006978
3986.000000	0.007085
3985.000000	0.007203
3984.000000	0.007328
3983.000000	0.007448
3982.000000	0.007559
3981.000000	0.007673
3980.000000	0.007816
3979.000000	0.008000
3978.000000	0.008213
3977.000000	0.008426
3976.000000	0.008613
3975.000000	0.008769
3974.000000	0.008902
3973.000000	0.009019
3972.000000	0.009123
3971.000000	0.009214
3970.000000	0.009294
3969.000000	0.009371
3968.000000	0.009459
3967.000000	0.009575
3966.000000	0.009734
3965.000000	0.009939
3964.000000	0.010165
3963.000000	0.010377
3962.000000	0.010551
3961.000000	0.010693
3960.000000	0.010814
3959.000000	0.010913
3958.000000	0.010978
3957.000000	0.011020
3956.000000	0.011064
3955.000000	0.011144
3954.000000	0.011286
3953.000000	0.011517
3952.000000	0.011846
3951.000000	0.012243
3950.000000	0.012636
3949.000000	0.012951
3948.000000	0.013175
3947.000000	0.013363
3946.000000	0.013577
3945.000000	0.013797
3944.000000	0.013940
3943.000000	0.013958
3942.000000	0.013896
3941.000000	0.013827
3940.000000	0.013767
3939.000000	0.013693
3938.000000	0.013647
3937.000000	0.013739
3936.000000	0.014047
3935.000000	0.014522
3934.000000	0.015013
3933.000000	0.015379
3932.000000	0.015557
3931.000000	0.015571
3930.000000	0.015496
3929.000000	0.015430
3928.000000	0.015456
3927.000000	0.015587
3926.000000	0.015754
3925.000000	0.015894
3924.000000	0.016026
3923.000000	0.016210
3922.000000	0.016452
3921.000000	0.016725
3920.000000	0.017023
3919.000000	0.017322
3918.000000	0.017529
3917.000000	0.017555
3916.000000	0.017421
3915.000000	0.017239
3914.000000	0.017083
3913.000000	0.016958
3912.000000	0.016867
3911.000000	0.016852
3910.000000	0.016953
3909.000000	0.017185
3908.000000	0.017544
3907.000000	0.018016
3906.000000	0.018560
3905.000000	0.019119
3904.000000	0.019641
3903.000000	0.020105
3902.000000	0.020481
3901.000000	0.020676
3900.000000	0.020616
3899.000000	0.020371
3898.000000	0.020114
3897.000000	0.019953
3896.000000	0.019895
3895.000000	0.019934
3894.000000	0.020065
3893.000000	0.020219
3892.000000	0.020263
3891.000000	0.020156
3890.000000	0.020070
3889.000000	0.020230
3888.000000	0.020632
3887.000000	0.021083
3886.000000	0.021443
3885.000000	0.021746
3884.000000	0.022114
3883.000000	0.022543
3882.000000	0.022861
3881.000000	0.022954
3880.000000	0.022869
3879.000000	0.022762
3878.000000	0.022772
3877.000000	0.022905
3876.000000	0.023062
3875.000000	0.023170
3874.000000	0.023250
3873.000000	0.023402
3872.000000	0.023636
3871.000000	0.023799
3870.000000	0.023787
3869.000000	0.023756
3868.000000	0.023932
3867.000000	0.024286
3866.000000	0.024625
3865.000000	0.024922
3864.000000	0.025251
3863.000000	0.025565
3862.000000	0.025779
3861.000000	0.025930
3860.000000	0.026077
3859.000000	0.026120
3858.000000	0.025852
3857.000000	0.025211
3856.000000	0.024420
3855.000000	0.023897
3854.000000	0.023842
3853.000000	0.024008
3852.000000	0.024219
3851.000000	0.024708
3850.000000	0.025591
3849.000000	0.026727
3848.000000	0.027913
3847.000000	0.028918
3846.000000	0.029590
3845.000000	0.029955
3844.000000	0.030119
3843.000000	0.030150
3842.000000	0.030071
3841.000000	0.029905
3840.000000	0.029680
3839.000000	0.029503
3838.000000	0.029486
3837.000000	0.029622
3836.000000	0.029848
3835.000000	0.030179
3834.000000	0.030651
3833.000000	0.031219
3832.000000	0.031783
3831.000000	0.032308
3830.000000	0.032836
3829.000000	0.033381
3828.000000	0.033873
3827.000000	0.034206
3826.000000	0.034352
3825.000000	0.034402
3824.000000	0.034449
3823.000000	0.034520
3822.000000	0.034580
3821.000000	0.034555
3820.000000	0.034470
3819.000000	0.034505
3818.000000	0.034723
3817.000000	0.035078
3816.000000	0.035575
3815.000000	0.036219
3814.000000	0.036975
3813.000000	0.037716
3812.000000	0.038324
3811.000000	0.038817
3810.000000	0.039213
3809.000000	0.039464
3808.000000	0.039561
3807.000000	0.039541
3806.000000	0.039504
3805.000000	0.039582
3804.000000	0.039794
3803.000000	0.040089
3802.000000	0.040478
3801.000000	0.040978
3800.000000	0.041605
3799.000000	0.042357
3798.000000	0.043151
3797.000000	0.043945
3796.000000	0.044737
3795.000000	0.045474
3794.000000	0.046110
3793.000000	0.046656
3792.000000	0.047184
3791.000000	0.047748
3790.000000	0.048320
3789.000000	0.048838
3788.000000	0.049308
3787.000000	0.049768
3786.000000	0.050214
3785.000000	0.050603
3784.000000	0.050931
3783.000000	0.051266
3782.000000	0.051662
3781.000000	0.052104
3780.000000	0.052541
3779.000000	0.052960
3778.000000	0.053396
3777.000000	0.053887
3776.000000	0.054413
3775.000000	0.054938
3774.000000	0.055465
3773.000000	0.055996
3772.000000	0.056493
3771.000000	0.056929
3770.000000	0.057357
3769.000000	0.057879
3768.000000	0.058538
3767.000000	0.059260
3766.000000	0.059937
3765.000000	0.060538
3764.000000	0.061114
3763.000000	0.061706
3762.000000	0.062289
3761.000000	0.062854
3760.000000	0.063442
3759.000000	0.064053
3758.000000	0.064590
3757.000000	0.064981
3756.000000	0.065241
3755.000000	0.065370
3754.000000	0.065336
3753.000000	0.065236
3752.000000	0.065312
3751.000000	0.065698
3750.000000	0.066254
3749.000000	0.066859
3748.000000	0.067664
3747.000000	0.068787
3746.000000	0.070096
3745.000000	0.071417
3744.000000	0.072646
3743.000000	0.073841
3742.000000	0.075113
3741.000000	0.076369
3740.000000	0.077619
3739.000000	0.079026
3738.000000	0.080532
3737.000000	0.081882
3736.000000	0.082854
3735.000000	0.083449
3734.000000	0.083859
3733.000000	0.084219
3732.000000	0.084606
3731.000000	0.085213
3730.000000	0.086246
3729.000000	0.087690
3728.000000	0.089328
3727.000000	0.090931
3726.000000	0.092385
3725.000000	0.093668
3724.000000	0.094762
3723.000000	0.095677
3722.000000	0.096521
3721.000000	0.097409
3720.000000	0.098381
3719.000000	0.099444
3718.000000	0.100581
3717.000000	0.101746
3716.000000	0.102880
3715.000000	0.103945
3714.000000	0.105011
3713.000000	0.106260
3712.000000	0.107800
3711.000000	0.109569
3710.000000	0.111469
3709.000000	0.113498
3708.000000	0.115678
3707.000000	0.117971
3706.000000	0.120312
3705.000000	0.122664
3704.000000	0.125031
3703.000000	0.127442
3702.000000	0.129893
3701.000000	0.132333
3700.000000	0.134718
3699.000000	0.137036
3698.000000	0.139226
3697.000000	0.141182
3696.000000	0.142836
3695.000000	0.144175
3694.000000	0.145199
3693.000000	0.145954
3692.000000	0.146599
3691.000000	0.147398
3690.000000	0.148603
3689.000000	0.150269
3688.000000	0.152246
3687.000000	0.154443
3686.000000	0.156873
3685.000000	0.159465
3684.000000	0.162102
3683.000000	0.164741
3682.000000	0.167350
3681.000000	0.169820
3680.000000	0.172054
3679.000000	0.174189
3678.000000	0.176636
3677.000000	0.179769
3676.000000	0.183509
3675.000000	0.187351
3674.000000	0.191033
3673.000000	0.194743
3672.000000	0.198702
3671.000000	0.203031
3670.000000	0.207672
3669.000000	0.212362
3668.000000	0.216895
3667.000000	0.221254
3666.000000	0.225539
3665.000000	0.229841
3664.000000	0.234165
3663.000000	0.238493
3662.000000	0.242795
3661.000000	0.247022
3660.000000	0.251161
3659.000000	0.255323
3658.000000	0.259679
3657.000000	0.264248
3656.000000	0.268817
3655.000000	0.273176
3654.000000	0.277324
3653.000000	0.281385
3652.000000	0.285578
3651.000000	0.290208
3650.000000	0.295418
3649.000000	0.300946
3648.000000	0.306285
3647.000000	0.311169
3646.000000	0.315744
3645.000000	0.320213
3644.000000	0.324597
3643.000000	0.328878
3642.000000	0.333111
3641.000000	0.337386
3640.000000	0.341730
3639.000000	0.346123
3638.000000	0.350581
3637.000000	0.355174
3636.000000	0.359897
3635.000000	0.364600
3634.000000	0.369089
3633.000000	0.373327
3632.000000	0.377544
3631.000000	0.382171
3630.000000	0.387560
3629.000000	0.393514
3628.000000	0.399391
3627.000000	0.404804
3626.000000	0.409722
3625.000000	0.414200
3624.000000	0.418321
3623.000000	0.422158
3622.000000	0.425804
3621.000000	0.429396
3620.000000	0.433011
3619.000000	0.436629
3618.000000	0.440211
3617.000000	0.443780
3616.000000	0.447381
3615.000000	0.451031
3614.000000	0.454724
3613.000000	0.458441
3612.000000	0.462197
3611.000000	0.466085
3610.000000	0.470188
3609.000000	0.474450
3608.000000	0.478694
3607.000000	0.482801
3606.000000	0.486772
3605.000000	0.490634
3604.000000	0.494423
3603.000000	0.498223
3602.000000	0.502140
3601.000000	0.506197
3600.000000	0.510331
3599.000000	0.514500
3598.000000	0.518719
3597.000000	0.523018
3596.000000	0.527398
3595.000000	0.531811
3594.000000	0.536187
3593.000000	0.540452
3592.000000	0.544599
3591.000000	0.548786
3590.000000	0.553281
3589.000000	0.558209
3588.000000	0.563402
3587.000000	0.568514
3586.000000	0.573267
3585.000000	0.577534
3584.000000	0.581359
3583.000000	0.584977
3582.000000	0.588659
3581.000000	0.592514
3580.000000	0.596495
3579.000000	0.600567
3578.000000	0.604745
3577.000000	0.609009
3576.000000	0.613300
3575.000000	0.617608
3574.000000	0.621984
3573.000000	0.626451
3572.000000	0.631002
3571.000000	0.635695
3570.000000	0.640640
3569.000000	0.645823
3568.000000	0.651028
3567.000000	0.655998
3566.000000	0.660611
3565.000000	0.664860
3564.000000	0.668800
3563.000000	0.672581
3562.000000	0.676375
3561.000000	0.680234
3560.000000	0.684104
3559.000000	0.687989
3558.000000	0.691949
3557.000000	0.695986
3556.000000	0.700057
3555.000000	0.704188
3554.000000	0.708448
3553.000000	0.712804
3552.000000	0.717126
3551.000000	0.721369
3550.000000	0.725648
3549.000000	0.730097
3548.000000	0.734754
3547.000000	0.739549
3546.000000	0.744291
3545.000000	0.748695
3544.000000	0.752562
3543.000000	0.755942
3542.000000	0.759083
3541.000000	0.762241
3540.000000	0.765603
3539.000000	0.769297
3538.000000	0.773307
3537.000000	0.777395
3536.000000	0.781268
3535.000000	0.784853
3534.000000	0.788293
3533.000000	0.791734
3532.000000	0.795229
3531.000000	0.798830
3530.000000	0.802593
3529.000000	0.806489
3528.000000	0.810445
3527.000000	0.814467
3526.000000	0.818578
3525.000000	0.822643
3524.000000	0.826421
3523.000000	0.829802
3522.000000	0.832882
3521.000000	0.835813
3520.000000	0.838724
3519.000000	0.841751
3518.000000	0.844995
3517.000000	0.848423
3516.000000	0.851911
3515.000000	0.855382
3514.000000	0.858807
3513.000000	0.862121
3512.000000	0.865268
3511.000000	0.868322
3510.000000	0.871405
3509.000000	0.874517
3508.000000	0.877597
3507.000000	0.880695
3506.000000	0.883950
3505.000000	0.887387
3504.000000	0.890854
3503.000000	0.894168
3502.000000	0.897221
3501.000000	0.899975
3500.000000	0.902502
3499.000000	0.904984
3498.000000	0.907562
3497.000000	0.910186
3496.000000	0.912728
3495.000000	0.915187
3494.000000	0.917650
3493.000000	0.920132
3492.000000	0.922599
3491.000000	0.925097
3490.000000	0.927702
3489.000000	0.930366
3488.000000	0.932951
3487.000000	0.935406
3486.000000	0.937767
3485.000000	0.940061
3484.000000	0.942336
3483.000000	0.944730
3482.000000	0.947325
3481.000000	0.949976
3480.000000	0.952435
3479.000000	0.954617
3478.000000	0.956606
3477.000000	0.958494
3476.000000	0.960348
3475.000000	0.962286
3474.000000	0.964414
3473.000000	0.966724
3472.000000	0.969160
3471.000000	0.971721
3470.000000	0.974357
3469.000000	0.976855
3468.000000	0.978992
3467.000000	0.980771
3466.000000	0.982364
3465.000000	0.983904
3464.000000	0.985473
3463.000000	0.987191
3462.000000	0.989116
3461.000000	0.991118
3460.000000	0.992991
3459.000000	0.994688
3458.000000	0.996287
3457.000000	0.997827
3456.000000	0.999314
3455.000000	1.000821
3454.000000	1.002414
3453.000000	1.004026
3452.000000	1.005565
3451.000000	1.007082
3450.000000	1.008683
3449.000000	1.010348
3448.000000	1.011967
3447.000000	1.013507
3446.000000	1.014979
3445.000000	1.016334
3444.000000	1.017527
3443.000000	1.018634
3442.000000	1.019782
3441.000000	1.021007
3440.000000	1.022312
3439.000000	1.023746
3438.000000	1.025303
3437.000000	1.026799
3436.000000	1.028015
3435.000000	1.028902
3434.000000	1.029553
3433.000000	1.030077
3432.000000	1.030592
3431.000000	1.031216
3430.000000	1.031927
3429.000000	1.032527
3428.000000	1.032884
3427.000000	1.033113
3426.000000	1.033398
3425.000000	1.033772
3424.000000	1.034188
3423.000000	1.034668
3422.000000	1.035216
3421.000000	1.035710
3420.000000	1.036041
3419.000000	1.036274
3418.000000	1.036533
3417.000000	1.036833
3416.000000	1.037144
3415.000000	1.037508
3414.000000	1.037932
3413.000000	1.038295
3412.000000	1.038496
3411.000000	1.038596
3410.000000	1.038680
3409.000000	1.038696
3408.000000	1.038570
3407.000000	1.038390
3406.000000	1.038323
3405.000000	1.038460
3404.000000	1.038826
3403.000000	1.039431
3402.000000	1.040143
3401.000000	1.040633
3400.000000	1.040637
3399.000000	1.040205
3398.000000	1.039607
3397.000000	1.039090
3396.000000	1.038813
3395.000000	1.038869
3394.000000	1.039195
3393.000000	1.039531
3392.000000	1.039624
3391.000000	1.039411
3390.000000	1.038958
3389.000000	1.038333
3388.000000	1.037662
3387.000000	1.037139
3386.000000	1.036860
3385.000000	1.036722
3384.000000	1.036595
3383.000000	1.036487
3382.000000	1.036436
3381.000000	1.036374
3380.000000	1.036223
3379.000000	1.036021
3378.000000	1.035826
3377.000000	1.035588
3376.000000	1.035253
3375.000000	1.034893
3374.000000	1.034625
3373.000000	1.034486
3372.000000	1.034467
3371.000000	1.034558
3370.000000	1.034655
3369.000000	1.034537
3368.000000	1.034066
3367.000000	1.033316
3366.000000	1.032447
3365.000000	1.031547
3364.000000	1.030677
3363.000000	1.029935
3362.000000	1.029339
3361.000000	1.028753
3360.000000	1.028047
3359.000000	1.027229
3358.000000	1.026357
3357.000000	1.025434
3356.000000	1.024476
3355.000000	1.023581
3354.000000	1.022807
3353.000000	1.022078
3352.000000	1.021280
3351.000000	1.020359
3350.000000	1.019269
3349.000000	1.017949
3348.000000	1.016445
3347.000000	1.014928
3346.000000	1.013511
3345.000000	1.012136
3344.000000	1.010714
3343.000000	1.009255
3342.000000	1.007784
3341.000000	1.006268
3340.000000	1.004680
3339.000000	1.003048
3338.000000	1.001346
3337.000000	0.999481
3336.000000	0.997440
3335.000000	0.995351
3334.000000	0.993311
3333.000000	0.991285
3332.000000	0.989219
3331.000000	0.987148
3330.000000	0.985111
3329.000000	0.983075
3328.000000	0.981019
3327.000000	0.978980
3326.000000	0.976943
3325.000000	0.974811
3324.000000	0.972539
3323.000000	0.970216
3322.000000	0.967937
3321.000000	0.965695
3320.000000	0.963470
3319.000000	0.961285
3318.000000	0.959140
3317.000000	0.956972
3316.000000	0.954758
3315.000000	0.952554
3314.000000	0.950384
3313.000000	0.948197
3312.000000	0.945986
3311.000000	0.943827
3310.000000	0.941750
3309.000000	0.939666
3308.000000	0.937492
3307.000000	0.935239
3306.000000	0.932924
3305.000000	0.930503
3304.000000	0.927976
3303.000000	0.925436
3302.000000	0.922958
3301.000000	0.920517
3300.000000	0.918076
3299.000000	0.915654
3298.000000	0.913250
3297.000000	0.910810
3296.000000	0.908313
3295.000000	0.905820
3294.000000	0.903371
3293.000000	0.900913
3292.000000	0.898391
3291.000000	0.895811
3290.000000	0.893183
3289.000000	0.890488
3288.000000	0.887742
3287.000000	0.885021
3286.000000	0.882353
3285.000000	0.879685
3284.000000	0.876970
3283.000000	0.874231
3282.000000	0.871488
3281.000000	0.868711
3280.000000	0.865889
3279.000000	0.863059
3278.000000	0.860230
3277.000000	0.857359
3276.000000	0.854431
3275.000000	0.851500
3274.000000	0.848601
3273.000000	0.845703
3272.000000	0.842774
3271.000000	0.839832
3270.000000	0.836885
3269.000000	0.833906
3268.000000	0.830888
3267.000000	0.827866
3266.000000	0.824847
3265.000000	0.821805
3264.000000	0.818748
3263.000000	0.815730
3262.000000	0.812763
3261.000000	0.809796
3260.000000	0.806798
3259.000000	0.803795
3258.000000	0.800799
3257.000000	0.797778
3256.000000	0.794727
3255.000000	0.791684
3254.000000	0.788659
3253.000000	0.785613
3252.000000	0.782532
3251.000000	0.779455
3250.000000	0.776402
3249.000000	0.773347
3248.000000	0.770275
3247.000000	0.767210
3246.000000	0.764149
3245.000000	0.761047
3244.000000	0.757897
3243.000000	0.754748
3242.000000	0.751630
3241.000000	0.748517
3240.000000	0.745379
3239.000000	0.742223
3238.000000	0.739052
3237.000000	0.735859
3236.000000	0.732657
3235.000000	0.729486
3234.000000	0.726337
3233.000000	0.723151
3232.000000	0.719898
3231.000000	0.716615
3230.000000	0.713339
3229.000000	0.710065
3228.000000	0.706779
3227.000000	0.703492
3226.000000	0.700207
3225.000000	0.696906
3224.000000	0.693585
3223.000000	0.690262
3222.000000	0.686940
3221.000000	0.683594
3220.000000	0.680224
3219.000000	0.676859
3218.000000	0.673509
3217.000000	0.670145
3216.000000	0.666749
3215.000000	0.663336
3214.000000	0.659920
3213.000000	0.656501
3212.000000	0.653083
3211.000000	0.649681
3210.000000	0.646286
3209.000000	0.642872
3208.000000	0.639432
3207.000000	0.635992
3206.000000	0.632565
3205.000000	0.629137
3204.000000	0.625702
3203.000000	0.622275
3202.000000	0.618859
3201.000000	0.615440
3200.000000	0.612007
3199.000000	0.608569
3198.000000	0.605124
3197.000000	0.601665
3196.000000	0.598206
3195.000000	0.594777
3194.000000	0.591379
3193.000000	0.587986
3192.000000	0.584583
3191.000000	0.581182
3190.000000	0.577790
3189.000000	0.574405
3188.000000	0.571028
3187.000000	0.567671
3186.000000	0.564328
3185.000000	0.560977
3184.000000	0.557613
3183.000000	0.554253
3182.000000	0.550914
3181.000000	0.547593
3180.000000	0.544284
3179.000000	0.540991
3178.000000	0.537709
3177.000000	0.534431
3176.000000	0.531163
3175.000000	0.527918
3174.000000	0.524696
3173.000000	0.521483
3172.000000	0.518278
3171.000000	0.515088
3170.000000	0.511909
3169.000000	0.508732
3168.000000	0.505563
3167.000000	0.502418
3166.000000	0.499294
3165.000000	0.496177
3164.000000	0.493064
3163.000000	0.489967
3162.000000	0.486893
3161.000000	0.483834
3160.000000	0.480790
3159.000000	0.477773
3158.000000	0.474789
3157.000000	0.471828
3156.000000	0.468888
3155.000000	0.465974
3154.000000	0.463087
3153.000000	0.460209
3152.000000	0.457320
3151.000000	0.454411
3150.000000	0.451489
3149.000000	0.448572
3148.000000	0.445686
3147.000000	0.442846
3146.000000	0.440043
3145.000000	0.437255
3144.000000	0.434474
3143.000000	0.431712
3142.000000	0.428983
3141.000000	0.426289
3140.000000	0.423622
3139.000000	0.420960
3138.000000	0.418287
3137.000000	0.415604
3136.000000	0.412933
3135.000000	0.410293
3134.000000	0.407686
3133.000000	0.405103
3132.000000	0.402548
3131.000000	0.400026
3130.000000	0.397532
3129.000000	0.395048
3128.000000	0.392568
3127.000000	0.390096
3126.000000	0.387643
3125.000000	0.385216
3124.000000	0.382822
3123.000000	0.380468
3122.000000	0.378151
3121.000000	0.375858
3120.000000	0.373582
3119.000000	0.371314
3118.000000	0.369047
3117.000000	0.366776
3116.000000	0.364503
3115.000000	0.362237
3114.000000	0.359990
3113.000000	0.357778
3112.000000	0.355615
3111.000000	0.353507
3110.000000	0.351435
3109.000000	0.349373
3108.000000	0.347308
3107.000000	0.345244
3106.000000	0.343200
3105.000000	0.341192
3104.000000	0.339229
3103.000000	0.337307
3102.000000	0.335410
3101.000000	0.333523
3100.000000	0.331647
3099.000000	0.329787
3098.000000	0.327946
3097.000000	0.326124
3096.000000	0.324321
3095.000000	0.322538
3094.000000	0.320782
3093.000000	0.319061
3092.000000	0.317374
3091.000000	0.315712
3090.000000	0.314059
3089.000000	0.312410
3088.000000	0.310772
3087.000000	0.309156
3086.000000	0.307568
3085.000000	0.306005
3084.000000	0.304457
3083.000000	0.302919
3082.000000	0.301387
3081.000000	0.299862
3080.000000	0.298347
3079.000000	0.296840
3078.000000	0.295338
3077.000000	0.293849
3076.000000	0.292379
3075.000000	0.290930
3074.000000	0.289500
3073.000000	0.288088
3072.000000	0.286695
3071.000000	0.285321
3070.000000	0.283964
3069.000000	0.282620
3068.000000	0.281278
3067.000000	0.279919
3066.000000	0.278528
3065.000000	0.277106
3064.000000	0.275661
3063.000000	0.274198
3062.000000	0.272720
3061.000000	0.271234
3060.000000	0.269749
3059.000000	0.268270
3058.000000	0.266791
3057.000000	0.265303
3056.000000	0.263806
3055.000000	0.262303
3054.000000	0.260805
3053.000000	0.259331
3052.000000	0.257892
3051.000000	0.256485
3050.000000	0.255093
3049.000000	0.253706
3048.000000	0.252327
3047.000000	0.250969
3046.000000	0.249643
3045.000000	0.248354
3044.000000	0.247101
3043.000000	0.245874
3042.000000	0.244665
3041.000000	0.243472
3040.000000	0.242295
3039.000000	0.241137
3038.000000	0.240006
3037.000000	0.238910
3036.000000	0.237854
3035.000000	0.236832
3034.000000	0.235836
3033.000000	0.234857
3032.000000	0.233884
3031.000000	0.232912
3030.000000	0.231947
3029.000000	0.231005
3028.000000	0.230101
3027.000000	0.229239
3026.000000	0.228416
3025.000000	0.227634
3024.000000	0.226889
3023.000000	0.226176
3022.000000	0.225495
3021.000000	0.224859
3020.000000	0.224278
3019.000000	0.223760
3018.000000	0.223306
3017.000000	0.222917
3016.000000	0.222593
3015.000000	0.222323
3014.000000	0.222099
3013.000000	0.221914
3012.000000	0.221759
3011.000000	0.221628
3010.000000	0.221526
3009.000000	0.221469
3008.000000	0.221475
3007.000000	0.221549
3006.000000	0.221688
3005.000000	0.221885
3004.000000	0.222137
3003.000000	0.222441
3002.000000	0.222810
3001.000000	0.223264
3000.000000	0.223820
2999.000000	0.224482
2998.000000	0.225253
2997.000000	0.226140
2996.000000	0.227153
2995.000000	0.228296
2994.000000	0.229581
2993.000000	0.231016
2992.000000	0.232610
2991.000000	0.234359
2990.000000	0.236255
2989.000000	0.238294
2988.000000	0.240466
2987.000000	0.242763
2986.000000	0.245182
2985.000000	0.247729
2984.000000	0.250405
2983.000000	0.253199
2982.000000	0.256096
2981.000000	0.259091
2980.000000	0.262180
2979.000000	0.265357
2978.000000	0.268617
2977.000000	0.271962
2976.000000	0.275393
2975.000000	0.278902
2974.000000	0.282476
2973.000000	0.286101
2972.000000	0.289771
2971.000000	0.293478
2970.000000	0.297214
2969.000000	0.300965
2968.000000	0.304716
2967.000000	0.308446
2966.000000	0.312139
2965.000000	0.315790
2964.000000	0.319400
2963.000000	0.322974
2962.000000	0.326516
2961.000000	0.330033
2960.000000	0.333545
2959.000000	0.337068
2958.000000	0.340612
2957.000000	0.344185
2956.000000	0.347801
2955.000000	0.351478
2954.000000	0.355240
2953.000000	0.359111
2952.000000	0.363109
2951.000000	0.367248
2950.000000	0.371533
2949.000000	0.375968
2948.000000	0.380549
2947.000000	0.385252
2946.000000	0.390026
2945.000000	0.394815
2944.000000	0.399574
2943.000000	0.404267
2942.000000	0.408852
2941.000000	0.413286
2940.000000	0.417536
2939.000000	0.421572
2938.000000	0.425365
2937.000000	0.428883
2936.000000	0.432106
2935.000000	0.435016
2934.000000	0.437588
2933.000000	0.439794
2932.000000	0.441616
2931.000000	0.443032
2930.000000	0.444003
2929.000000	0.444474
2928.000000	0.444401
2927.000000	0.443741
2926.000000	0.442439
2925.000000	0.440448
2924.000000	0.437753
2923.000000	0.434383
2922.000000	0.430397
2921.000000	0.425881
2920.000000	0.420952
2919.000000	0.415742
2918.000000	0.410376
2917.000000	0.404975
2916.000000	0.399651
2915.000000	0.394490
2914.000000	0.389545
2913.000000	0.384842
2912.000000	0.380398
2911.000000	0.376226
2910.000000	0.372320
2909.000000	0.368665
2908.000000	0.365236
2907.000000	0.362004
2906.000000	0.358936
2905.000000	0.356008
2904.000000	0.353204
2903.000000	0.350505
2902.000000	0.347886
2901.000000	0.345321
2900.000000	0.342788
2899.000000	0.340272
2898.000000	0.337770
2897.000000	0.335289
2896.000000	0.332836
2895.000000	0.330406
2894.000000	0.327983
2893.000000	0.325553
2892.000000	0.323109
2891.000000	0.320647
2890.000000	0.318163
2889.000000	0.315656
2888.000000	0.313126
2887.000000	0.310567
2886.000000	0.307984
2885.000000	0.305383
2884.000000	0.302772
2883.000000	0.300147
2882.000000	0.297499
2881.000000	0.294829
2880.000000	0.292139
2879.000000	0.289424
2878.000000	0.286675
2877.000000	0.283887
2876.000000	0.281058
2875.000000	0.278181
2874.000000	0.275251
2873.000000	0.272267
2872.000000	0.269232
2871.000000	0.266156
2870.000000	0.263073
2869.000000	0.260042
2868.000000	0.257129
2867.000000	0.254393
2866.000000	0.251889
2865.000000	0.249669
2864.000000	0.247773
2863.000000	0.246212
2862.000000	0.244968
2861.000000	0.244005
2860.000000	0.243259
2859.000000	0.242626
2858.000000	0.241973
2857.000000	0.241140
2856.000000	0.239954
2855.000000	0.238255
2854.000000	0.235925
2853.000000	0.232917
2852.000000	0.229253
2851.000000	0.225011
2850.000000	0.220327
2849.000000	0.215371
2848.000000	0.210317
2847.000000	0.205306
2846.000000	0.200446
2845.000000	0.195804
2844.000000	0.191412
2843.000000	0.187267
2842.000000	0.183357
2841.000000	0.179669
2840.000000	0.176181
2839.000000	0.172865
2838.000000	0.169699
2837.000000	0.166670
2836.000000	0.163761
2835.000000	0.160955
2834.000000	0.158246
2833.000000	0.155641
2832.000000	0.153139
2831.000000	0.150732
2830.000000	0.148414
2829.000000	0.146192
2828.000000	0.144066
2827.000000	0.142028
2826.000000	0.140071
2825.000000	0.138193
2824.000000	0.136388
2823.000000	0.134644
2822.000000	0.132956
2821.000000	0.131330
2820.000000	0.129765
2819.000000	0.128250
2818.000000	0.126786
2817.000000	0.125378
2816.000000	0.124023
2815.000000	0.122706
2814.000000	0.121418
2813.000000	0.120164
2812.000000	0.118946
2811.000000	0.117759
2810.000000	0.116605
2809.000000	0.115497
2808.000000	0.114432
2807.000000	0.113398
2806.000000	0.112384
2805.000000	0.111394
2804.000000	0.110426
2803.000000	0.109469
2802.000000	0.108526
2801.000000	0.107612
2800.000000	0.106732
2799.000000	0.105882
2798.000000	0.105056
2797.000000	0.104259
2796.000000	0.103484
2795.000000	0.102718
2794.000000	0.101957
2793.000000	0.101212
2792.000000	0.100488
2791.000000	0.099786
2790.000000	0.099111
2789.000000	0.098470
2788.000000	0.097857
2787.000000	0.097252
2786.000000	0.096649
2785.000000	0.096061
2784.000000	0.095497
2783.000000	0.094951
2782.000000	0.094423
2781.000000	0.093921
2780.000000	0.093441
2779.000000	0.092972
2778.000000	0.092510
2777.000000	0.092064
2776.000000	0.091637
2775.000000	0.091229
2774.000000	0.090845
2773.000000	0.090495
2772.000000	0.090173
2771.000000	0.089857
2770.000000	0.089536
2769.000000	0.089207
2768.000000	0.088863
2767.000000	0.088487
2766.000000	0.088079
2765.000000	0.087651
2764.000000	0.087215
2763.000000	0.086769
2762.000000	0.086317
2761.000000	0.085874
2760.000000	0.085444
2759.000000	0.085023
2758.000000	0.084613
2757.000000	0.084229
2756.000000	0.083872
2755.000000	0.083529
2754.000000	0.083194
2753.000000	0.082868
2752.000000	0.082550
2751.000000	0.082229
2750.000000	0.081910
2749.000000	0.081608
2748.000000	0.081326
2747.000000	0.081053
2746.000000	0.080784
2745.000000	0.080521
2744.000000	0.080261
2743.000000	0.079991
2742.000000	0.079712
2741.000000	0.079437
2740.000000	0.079169
2739.000000	0.078897
2738.000000	0.078622
2737.000000	0.078353
2736.000000	0.078085
2735.000000	0.077805
2734.000000	0.077508
2733.000000	0.077209
2732.000000	0.076913
2731.000000	0.076614
2730.000000	0.076308
2729.000000	0.076005
2728.000000	0.075705
2727.000000	0.075395
2726.000000	0.075076
2725.000000	0.074756
2724.000000	0.074435
2723.000000	0.074103
2722.000000	0.073766
2721.000000	0.073433
2720.000000	0.073102
2719.000000	0.072758
2718.000000	0.072397
2717.000000	0.072032
2716.000000	0.071667
2715.000000	0.071293
2714.000000	0.070910
2713.000000	0.070530
2712.000000	0.070152
2711.000000	0.069766
2710.000000	0.069370
2709.000000	0.068972
2708.000000	0.068575
2707.000000	0.068171
2706.000000	0.067765
2705.000000	0.067370
2704.000000	0.066988
2703.000000	0.066604
2702.000000	0.066218
2701.000000	0.065839
2700.000000	0.065471
2699.000000	0.065103
2698.000000	0.064736
2697.000000	0.064385
2696.000000	0.064051
2695.000000	0.063722
2694.000000	0.063390
2693.000000	0.063062
2692.000000	0.062736
2691.000000	0.062408
2690.000000	0.062080
2689.000000	0.061767
2688.000000	0.061468
2687.000000	0.061170
2686.000000	0.060870
2685.000000	0.060579
2684.000000	0.060292
2683.000000	0.059998
2682.000000	0.059697
2681.000000	0.059408
2680.000000	0.059133
2679.000000	0.058862
2678.000000	0.058590
2677.000000	0.058321
2676.000000	0.058052
2675.000000	0.057773
2674.000000	0.057485
2673.000000	0.057203
2672.000000	0.056929
2671.000000	0.056654
2670.000000	0.056378
2669.000000	0.056110
2668.000000	0.055848
2667.000000	0.055575
2666.000000	0.055291
2665.000000	0.055010
2664.000000	0.054736
2663.000000	0.054459
2662.000000	0.054180
2661.000000	0.053910
2660.000000	0.053647
2659.000000	0.053380
2658.000000	0.053107
2657.000000	0.052838
2656.000000	0.052570
2655.000000	0.052294
2654.000000	0.052016
2653.000000	0.051747
2652.000000	0.051486
2651.000000	0.051216
2650.000000	0.050934
2649.000000	0.050654
2648.000000	0.050378
2647.000000	0.050094
2646.000000	0.049802
2645.000000	0.049515
2644.000000	0.049232
2643.000000	0.048940
2642.000000	0.048640
2641.000000	0.048341
2640.000000	0.048042
2639.000000	0.047730
2638.000000	0.047408
2637.000000	0.047092
2636.000000	0.046783
2635.000000	0.046466
2634.000000	0.046140
2633.000000	0.045814
2632.000000	0.045490
2631.000000	0.045156
2630.000000	0.044815
2629.000000	0.044485
2628.000000	0.044168
2627.000000	0.043852
2626.000000	0.043530
2625.000000	0.043212
2624.000000	0.042895
2623.000000	0.042570
2622.000000	0.042243
2621.000000	0.041931
2620.000000	0.041638
2619.000000	0.041347
2618.000000	0.041057
2617.000000	0.040775
2616.000000	0.040499
2615.000000	0.040214
2614.000000	0.039922
2613.000000	0.039640
2612.000000	0.039372
2611.000000	0.039106
2610.000000	0.038838
2609.000000	0.038580
2608.000000	0.038327
2607.000000	0.038066
2606.000000	0.037798
2605.000000	0.037540
2604.000000	0.037294
2603.000000	0.037052
2602.000000	0.036814
2601.000000	0.036588
2600.000000	0.036368
2599.000000	0.036135
2598.000000	0.035887
2597.000000	0.035646
2596.000000	0.035419
2595.000000	0.035199
2594.000000	0.034986
2593.000000	0.034788
2592.000000	0.034599
2591.000000	0.034398
2590.000000	0.034182
2589.000000	0.033967
2588.000000	0.033759
2587.000000	0.033552
2586.000000	0.033353
2585.000000	0.033172
2584.000000	0.033003
2583.000000	0.032819
2582.000000	0.032618
2581.000000	0.032414
2580.000000	0.032214
2579.000000	0.032010
2578.000000	0.031808
2577.000000	0.031628
2576.000000	0.031466
2575.000000	0.031303
2574.000000	0.031129
2573.000000	0.030950
2572.000000	0.030765
2571.000000	0.030564
2570.000000	0.030358
2569.000000	0.030168
2568.000000	0.029996
2567.000000	0.029824
2566.000000	0.029646
2565.000000	0.029467
2564.000000	0.029286
2563.000000	0.029087
2562.000000	0.028879
2561.000000	0.028684
2560.000000	0.028508
2559.000000	0.028336
2558.000000	0.028160
2557.000000	0.027988
2556.000000	0.027814
2555.000000	0.027623
2554.000000	0.027419
2553.000000	0.027224
2552.000000	0.027044
2551.000000	0.026866
2550.000000	0.026691
2549.000000	0.026530
2548.000000	0.026376
2547.000000	0.026210
2546.000000	0.026029
2545.000000	0.025851
2544.000000	0.025680
2543.000000	0.025509
2542.000000	0.025338
2541.000000	0.025180
2540.000000	0.025028
2539.000000	0.024865
2538.000000	0.024688
2537.000000	0.024513
2536.000000	0.024343
2535.000000	0.024165
2534.000000	0.023984
2533.000000	0.023816
2532.000000	0.023660
2531.000000	0.023496
2530.000000	0.023320
2529.000000	0.023146
2528.000000	0.022975
2527.000000	0.022797
2526.000000	0.022616
2525.000000	0.022451
2524.000000	0.022300
2523.000000	0.022147
2522.000000	0.021990
2521.000000	0.021841
2520.000000	0.021696
2519.000000	0.021540
2518.000000	0.021380
2517.000000	0.021236
2516.000000	0.021108
2515.000000	0.020979
2514.000000	0.020845
2513.000000	0.020719
2512.000000	0.020599
2511.000000	0.020470
2510.000000	0.020334
2509.000000	0.020212
2508.000000	0.020103
2507.000000	0.019993
2506.000000	0.019880
2505.000000	0.019777
2504.000000	0.019677
2503.000000	0.019562
2502.000000	0.019435
2501.000000	0.019313
2500.000000	0.019194
2499.000000	0.019058
2498.000000	0.018905
2497.000000	0.018753
2496.000000	0.018603
2495.000000	0.018441
2494.000000	0.018267
2493.000000	0.018096
2492.000000	0.017929
2491.000000	0.017751
2490.000000	0.017565
2489.000000	0.017391
2488.000000	0.017229
2487.000000	0.017066
2486.000000	0.016904
2485.000000	0.016757
2484.000000	0.016622
2483.000000	0.016475
2482.000000	0.016316
2481.000000	0.016162
2480.000000	0.016015
2479.000000	0.015858
2478.000000	0.015694
2477.000000	0.015544
2476.000000	0.015408
2475.000000	0.015270
2474.000000	0.015127
2473.000000	0.014990
2472.000000	0.014855
2471.000000	0.014704
2470.000000	0.014540
2469.000000	0.014385
2468.000000	0.014242
2467.000000	0.014098
2466.000000	0.013956
2465.000000	0.013830
2464.000000	0.013713
2463.000000	0.013580
2462.000000	0.013429
2461.000000	0.013279
2460.000000	0.013133
2459.000000	0.012983
2458.000000	0.012835
2457.000000	0.012705
2456.000000	0.012588
2455.000000	0.012459
2454.000000	0.012313
2453.000000	0.012166
2452.000000	0.012017
2451.000000	0.011855
2450.000000	0.011690
2449.000000	0.011543
2448.000000	0.011414
2447.000000	0.011279
2446.000000	0.011133
2445.000000	0.010987
2444.000000	0.010842
2443.000000	0.010685
2442.000000	0.010522
2441.000000	0.010375
2440.000000	0.010244
2439.000000	0.010109
2438.000000	0.009965
2437.000000	0.009826
2436.000000	0.009684
2435.000000	0.009523
2434.000000	0.009351
2433.000000	0.009193
2432.000000	0.009053
2431.000000	0.008913
2430.000000	0.008768
2429.000000	0.008629
2428.000000	0.008492
2427.000000	0.008336
2426.000000	0.008166
2425.000000	0.008007
2424.000000	0.007866
2423.000000	0.007729
2422.000000	0.007595
2421.000000	0.007471
2420.000000	0.007347
2419.000000	0.007198
2418.000000	0.007031
2417.000000	0.006876
2416.000000	0.006739
2415.000000	0.006608
2414.000000	0.006482
2413.000000	0.006377
2412.000000	0.006282
2411.000000	0.006169
2410.000000	0.006035
2409.000000	0.005902
2408.000000	0.005778
2407.000000	0.005655
2406.000000	0.005539
2405.000000	0.005448
2404.000000	0.005369
2403.000000	0.005272
2402.000000	0.005149
2401.000000	0.005016
2400.000000	0.004876
2399.000000	0.004719
2398.000000	0.004561
2397.000000	0.004429
2396.000000	0.004322
2395.000000	0.004210
2394.000000	0.004082
2393.000000	0.003951
2392.000000	0.003814
2391.000000	0.003662
2390.000000	0.003510
2389.000000	0.003388
2388.000000	0.003299
2387.000000	0.003220
2386.000000	0.003142
2385.000000	0.003076
2384.000000	0.003008
2383.000000	0.002916
2382.000000	0.002810
2381.000000	0.002721
2380.000000	0.002655
2379.000000	0.002589
2378.000000	0.002520
2377.000000	0.002460
2376.000000	0.002398
2375.000000	0.002308
2374.000000	0.002193
2373.000000	0.002086
2372.000000	0.001996
2371.000000	0.001905
2370.000000	0.001820
2369.000000	0.001762
2368.000000	0.001721
2367.000000	0.001662
2366.000000	0.001584
2365.000000	0.001517
2364.000000	0.001457
2363.000000	0.001384
2362.000000	0.001311
2361.000000	0.001262
2360.000000	0.001227
2359.000000	0.001178
2358.000000	0.001126
2357.000000	0.001095
2356.000000	0.001064
2355.000000	0.001005
2354.000000	0.000925
2353.000000	0.000843
2352.000000	0.000760
2351.000000	0.000681
2350.000000	0.000649
2349.000000	0.000680
2348.000000	0.000707
2347.000000	0.000638
2346.000000	0.000450
2345.000000	0.000254
2344.000000	0.000157
2343.000000	0.000170
2342.000000	0.000237
2341.000000	0.000311
2340.000000	0.000376
2339.000000	0.000411
2338.000000	0.000426
2337.000000	0.000439
2336.000000	0.000456
2335.000000	0.000455
2334.000000	0.000441
2333.000000	0.000420
2332.000000	0.000392
2331.000000	0.000331
2330.000000	0.000272
2329.000000	0.000264
2328.000000	0.000322
2327.000000	0.000409
2326.000000	0.000481
2325.000000	0.000529
2324.000000	0.000536
2323.000000	0.000499
2322.000000	0.000450
2321.000000	0.000424
2320.000000	0.000429
2319.000000	0.000436
2318.000000	0.000457
2317.000000	0.000507
2316.000000	0.000569
2315.000000	0.000587
2314.000000	0.000561
2313.000000	0.000526
2312.000000	0.000511
2311.000000	0.000500
2310.000000	0.000497
2309.000000	0.000517
2308.000000	0.000559
2307.000000	0.000598
2306.000000	0.000634
2305.000000	0.000687
2304.000000	0.000756
2303.000000	0.000813
2302.000000	0.000860
2301.000000	0.000918
2300.000000	0.000988
2299.000000	0.001044
2298.000000	0.001090
2297.000000	0.001149
2296.000000	0.001220
2295.000000	0.001276
2294.000000	0.001315
2293.000000	0.001363
2292.000000	0.001422
2291.000000	0.001471
2290.000000	0.001508
2289.000000	0.001554
2288.000000	0.001608
2287.000000	0.001648
2286.000000	0.001678
2285.000000	0.001721
2284.000000	0.001774
2283.000000	0.001813
2282.000000	0.001839
2281.000000	0.001878
2280.000000	0.001933
2279.000000	0.001977
2278.000000	0.002009
2277.000000	0.002051
2276.000000	0.002104
2275.000000	0.002146
2274.000000	0.002179
2273.000000	0.002225
2272.000000	0.002284
2271.000000	0.002334
2270.000000	0.002377
2269.000000	0.002434
2268.000000	0.002501
2267.000000	0.002555
2266.000000	0.002596
2265.000000	0.002652
2264.000000	0.002721
2263.000000	0.002778
2262.000000	0.002824
2261.000000	0.002887
2260.000000	0.002967
2259.000000	0.003036
2258.000000	0.003092
2257.000000	0.003155
2256.000000	0.003225
2255.000000	0.003282
2254.000000	0.003331
2253.000000	0.003398
2252.000000	0.003481
2251.000000	0.003553
2250.000000	0.003611
2249.000000	0.003678
2248.000000	0.003753
2247.000000	0.003812
2246.000000	0.003864
2245.000000	0.003936
2244.000000	0.004028
2243.000000	0.004110
2242.000000	0.004179
2241.000000	0.004255
2240.000000	0.004338
2239.000000	0.004403
2238.000000	0.004453
2237.000000	0.004520
2236.000000	0.004606
2235.000000	0.004688
2234.000000	0.004762
2233.000000	0.004845
2232.000000	0.004925
2231.000000	0.004971
2230.000000	0.004986
2229.000000	0.005003
2228.000000	0.005031
2227.000000	0.005052
2226.000000	0.005064
2225.000000	0.005089
2224.000000	0.005118
2223.000000	0.005121
2222.000000	0.005096
2221.000000	0.005075
2220.000000	0.005066
2219.000000	0.005053
2218.000000	0.005045
2217.000000	0.005067
2216.000000	0.005111
2215.000000	0.005138
2214.000000	0.005144
2213.000000	0.005152
2212.000000	0.005166
2211.000000	0.005169
2210.000000	0.005171
2209.000000	0.005207
2208.000000	0.005274
2207.000000	0.005337
2206.000000	0.005380
2205.000000	0.005421
2204.000000	0.005458
2203.000000	0.005471
2202.000000	0.005474
2201.000000	0.005507
2200.000000	0.005573
2199.000000	0.005644
2198.000000	0.005711
2197.000000	0.005788
2196.000000	0.005862
2195.000000	0.005904
2194.000000	0.005924
2193.000000	0.005963
2192.000000	0.006033
2191.000000	0.006112
2190.000000	0.006196
2189.000000	0.006301
2188.000000	0.006412
2187.000000	0.006493
2186.000000	0.006547
2185.000000	0.006609
2184.000000	0.006691
2183.000000	0.006775
2182.000000	0.006864
2181.000000	0.006982
2180.000000	0.007117
2179.000000	0.007229
2178.000000	0.007313
2177.000000	0.007399
2176.000000	0.007496
2175.000000	0.007585
2174.000000	0.007672
2173.000000	0.007787
2172.000000	0.007923
2171.000000	0.008046
2170.000000	0.008150
2169.000000	0.008257
2168.000000	0.008362
2167.000000	0.008440
2166.000000	0.008506
2165.000000	0.008600
2164.000000	0.008718
2163.000000	0.008823
2162.000000	0.008902
2161.000000	0.008981
2160.000000	0.009063
2159.000000	0.009123
2158.000000	0.009165
2157.000000	0.009220
2156.000000	0.009289
2155.000000	0.009346
2154.000000	0.009389
2153.000000	0.009444
2152.000000	0.009504
2151.000000	0.009540
2150.000000	0.009555
2149.000000	0.009582
2148.000000	0.009623
2147.000000	0.009651
2146.000000	0.009665
2145.000000	0.009694
2144.000000	0.009737
2143.000000	0.009762
2142.000000	0.009770
2141.000000	0.009792
2140.000000	0.009828
2139.000000	0.009850
2138.000000	0.009857
2137.000000	0.009877
2136.000000	0.009902
2135.000000	0.009900
2134.000000	0.009879
2133.000000	0.009876
2132.000000	0.009890
2131.000000	0.009887
2130.000000	0.009867
2129.000000	0.009862
2128.000000	0.009874
2127.000000	0.009872
2126.000000	0.009858
2125.000000	0.009862
2124.000000	0.009885
2123.000000	0.009891
2122.000000	0.009878
2121.000000	0.009876
2120.000000	0.009884
2119.000000	0.009874
2118.000000	0.009856
2117.000000	0.009866
2116.000000	0.009898
2115.000000	0.009907
2114.000000	0.009885
2113.000000	0.009867
2112.000000	0.009860
2111.000000	0.009834
2110.000000	0.009794
2109.000000	0.009775
2108.000000	0.009780
2107.000000	0.009778
2106.000000	0.009766
2105.000000	0.009772
2104.000000	0.009792
2103.000000	0.009787
2102.000000	0.009758
2101.000000	0.009742
2100.000000	0.009742
2099.000000	0.009729
2098.000000	0.009708
2097.000000	0.009713
2096.000000	0.009741
2095.000000	0.009750
2094.000000	0.009742
2093.000000	0.009758
2092.000000	0.009804
2091.000000	0.009835
2090.000000	0.009834
2089.000000	0.009826
2088.000000	0.009822
2087.000000	0.009803
2086.000000	0.009777
2085.000000	0.009774
2084.000000	0.009791
2083.000000	0.009793
2082.000000	0.009783
2081.000000	0.009799
2080.000000	0.009842
2079.000000	0.009873
2078.000000	0.009885
2077.000000	0.009914
2076.000000	0.009959
2075.000000	0.009986
2074.000000	0.009992
2073.000000	0.010010
2072.000000	0.010045
2071.000000	0.010067
2070.000000	0.010082
2069.000000	0.010138
2068.000000	0.010250
2067.000000	0.010377
2066.000000	0.010479
2065.000000	0.010536
2064.000000	0.010529
2063.000000	0.010462
2062.000000	0.010391
2061.000000	0.010377
2060.000000	0.010401
2059.000000	0.010405
2058.000000	0.010384
2057.000000	0.010382
2056.000000	0.010405
2055.000000	0.010414
2054.000000	0.010406
2053.000000	0.010413
2052.000000	0.010430
2051.000000	0.010417
2050.000000	0.010378
2049.000000	0.010357
2048.000000	0.010359
2047.000000	0.010349
2046.000000	0.010328
2045.000000	0.010343
2044.000000	0.010394
2043.000000	0.010428
2042.000000	0.010406
2041.000000	0.010336
2040.000000	0.010223
2039.000000	0.010072
2038.000000	0.009926
2037.000000	0.009833
2036.000000	0.009772
2035.000000	0.009686
2034.000000	0.009567
2033.000000	0.009453
2032.000000	0.009347
2031.000000	0.009216
2030.000000	0.009074
2029.000000	0.008962
2028.000000	0.008875
2027.000000	0.008762
2026.000000	0.008620
2025.000000	0.008484
2024.000000	0.008354
2023.000000	0.008195
2022.000000	0.008032
2021.000000	0.007940
2020.000000	0.007946
2019.000000	0.007985
2018.000000	0.007978
2017.000000	0.007877
2016.000000	0.007656
2015.000000	0.007341
2014.000000	0.007034
2013.000000	0.006827
2012.000000	0.006711
2011.000000	0.006616
2010.000000	0.006525
2009.000000	0.006459
2008.000000	0.006398
2007.000000	0.006292
2006.000000	0.006151
2005.000000	0.006036
2004.000000	0.005956
2003.000000	0.005873
2002.000000	0.005789
2001.000000	0.005740
2000.000000	0.005711
1999.000000	0.005649
1998.000000	0.005552
1997.000000	0.005482
1996.000000	0.005491
1995.000000	0.005593
1994.000000	0.005781
1993.000000	0.005988
1992.000000	0.006073
1991.000000	0.005960
1990.000000	0.005749
1989.000000	0.005593
1988.000000	0.005495
1987.000000	0.005368
1986.000000	0.005217
1985.000000	0.005127
1984.000000	0.005109
1983.000000	0.005091
1982.000000	0.005053
1981.000000	0.005047
1980.000000	0.005075
1979.000000	0.005080
1978.000000	0.005062
1977.000000	0.005070
1976.000000	0.005098
1975.000000	0.005084
1974.000000	0.005032
1973.000000	0.005006
1972.000000	0.005026
1971.000000	0.005073
1970.000000	0.005185
1969.000000	0.005411
1968.000000	0.005658
1967.000000	0.005738
1966.000000	0.005590
1965.000000	0.005354
1964.000000	0.005168
1963.000000	0.005052
1962.000000	0.004991
1961.000000	0.004999
1960.000000	0.005047
1959.000000	0.005069
1958.000000	0.005067
1957.000000	0.005098
1956.000000	0.005154
1955.000000	0.005155
1954.000000	0.005092
1953.000000	0.005051
1952.000000	0.005064
1951.000000	0.005078
1950.000000	0.005081
1949.000000	0.005128
1948.000000	0.005227
1947.000000	0.005333
1946.000000	0.005474
1945.000000	0.005728
1944.000000	0.006048
1943.000000	0.006230
1942.000000	0.006135
1941.000000	0.005851
1940.000000	0.005563
1939.000000	0.005354
1938.000000	0.005225
1937.000000	0.005186
1936.000000	0.005221
1935.000000	0.005270
1934.000000	0.005310
1933.000000	0.005369
1932.000000	0.005436
1931.000000	0.005461
1930.000000	0.005455
1929.000000	0.005485
1928.000000	0.005566
1927.000000	0.005681
1926.000000	0.005899
1925.000000	0.006314
1924.000000	0.006834
1923.000000	0.007198
1922.000000	0.007268
1921.000000	0.007202
1920.000000	0.007201
1919.000000	0.007263
1918.000000	0.007284
1917.000000	0.007257
1916.000000	0.007252
1915.000000	0.007304
1914.000000	0.007409
1913.000000	0.007598
1912.000000	0.007889
1911.000000	0.008222
1910.000000	0.008508
1909.000000	0.008684
1908.000000	0.008712
1907.000000	0.008606
1906.000000	0.008470
1905.000000	0.008419
1904.000000	0.008457
1903.000000	0.008499
1902.000000	0.008509
1901.000000	0.008534
1900.000000	0.008594
1899.000000	0.008671
1898.000000	0.008800
1897.000000	0.009040
1896.000000	0.009328
1895.000000	0.009508
1894.000000	0.009542
1893.000000	0.009585
1892.000000	0.009767
1891.000000	0.010037
1890.000000	0.010258
1889.000000	0.010346
1888.000000	0.010320
1887.000000	0.010287
1886.000000	0.010344
1885.000000	0.010502
1884.000000	0.010688
1883.000000	0.010827
1882.000000	0.010946
1881.000000	0.011119
1880.000000	0.011336
1879.000000	0.011521
1878.000000	0.011671
1877.000000	0.011859
1876.000000	0.012098
1875.000000	0.012330
1874.000000	0.012577
1873.000000	0.012941
1872.000000	0.013450
1871.000000	0.014031
1870.000000	0.014636
1869.000000	0.015231
1868.000000	0.015639
1867.000000	0.015697
1866.000000	0.015526
1865.000000	0.015376
1864.000000	0.015350
1863.000000	0.015417
1862.000000	0.015559
1861.000000	0.015787
1860.000000	0.016048
1859.000000	0.016256
1858.000000	0.016410
1857.000000	0.016590
1856.000000	0.016812
1855.000000	0.017025
1854.000000	0.017239
1853.000000	0.017525
1852.000000	0.017911
1851.000000	0.018379
1850.000000	0.018948
1849.000000	0.019631
1848.000000	0.020313
1847.000000	0.020847
1846.000000	0.021260
1845.000000	0.021705
1844.000000	0.022182
1843.000000	0.022548
1842.000000	0.022805
1841.000000	0.023089
1840.000000	0.023475
1839.000000	0.023946
1838.000000	0.024483
1837.000000	0.025084
1836.000000	0.025681
1835.000000	0.026191
1834.000000	0.026665
1833.000000	0.027248
1832.000000	0.028002
1831.000000	0.028875
1830.000000	0.029799
1829.000000	0.030691
1828.000000	0.031503
1827.000000	0.032258
1826.000000	0.032970
1825.000000	0.033649
1824.000000	0.034265
1823.000000	0.034799
1822.000000	0.035356
1821.000000	0.036065
1820.000000	0.036929
1819.000000	0.037836
1818.000000	0.038722
1817.000000	0.039607
1816.000000	0.040498
1815.000000	0.041409
1814.000000	0.042448
1813.000000	0.043706
1812.000000	0.045064
1811.000000	0.046298
1810.000000	0.047356
1809.000000	0.048366
1808.000000	0.049377
1807.000000	0.050347
1806.000000	0.051393
1805.000000	0.052737
1804.000000	0.054389
1803.000000	0.056098
1802.000000	0.057653
1801.000000	0.059033
1800.000000	0.060302
1799.000000	0.061577
1798.000000	0.063024
1797.000000	0.064675
1796.000000	0.066336
1795.000000	0.067883
1794.000000	0.069549
1793.000000	0.071667
1792.000000	0.074060
1791.000000	0.076126
1790.000000	0.077719
1789.000000	0.079286
1788.000000	0.081172
1787.000000	0.083392
1786.000000	0.085857
1785.000000	0.088481
1784.000000	0.091149
1783.000000	0.093842
1782.000000	0.096733
1781.000000	0.099955
1780.000000	0.103329
1779.000000	0.106604
1778.000000	0.109877
1777.000000	0.113375
1776.000000	0.117091
1775.000000	0.120981
1774.000000	0.125380
1773.000000	0.130797
1772.000000	0.136995
1771.000000	0.142983
1770.000000	0.148480
1769.000000	0.154110
1768.000000	0.160178
1767.000000	0.166385
1766.000000	0.172540
1765.000000	0.178932
1764.000000	0.185944
1763.000000	0.193754
1762.000000	0.202261
1761.000000	0.211030
1760.000000	0.219517
1759.000000	0.227564
1758.000000	0.235562
1757.000000	0.243872
1756.000000	0.252114
1755.000000	0.259699
1754.000000	0.266857
1753.000000	0.274387
1752.000000	0.282561
1751.000000	0.290681
1750.000000	0.297948
1749.000000	0.304234
1748.000000	0.309652
1747.000000	0.314276
1746.000000	0.318425
1745.000000	0.322419
1744.000000	0.326059
1743.000000	0.328850
1742.000000	0.330823
1741.000000	0.332605
1740.000000	0.334489
1739.000000	0.336093
1738.000000	0.337099
1737.000000	0.337724
1736.000000	0.338325
1735.000000	0.338999
1734.000000	0.339618
1733.000000	0.339850
1732.000000	0.339223
1731.000000	0.337537
1730.000000	0.335178
1729.000000	0.332832
1728.000000	0.330786
1727.000000	0.328998
1726.000000	0.327499
1725.000000	0.326367
1724.000000	0.325402
1723.000000	0.324263
1722.000000	0.322946
1721.000000	0.321767
1720.000000	0.321019
1719.000000	0.320919
1718.000000	0.321595
1717.000000	0.322488
1716.000000	0.322441
1715.000000	0.321091
1714.000000	0.319227
1713.000000	0.317831
1712.000000	0.317161
1711.000000	0.316866
1710.000000	0.316782
1709.000000	0.317070
1708.000000	0.317766
1707.000000	0.318813
1706.000000	0.320360
1705.000000	0.322334
1704.000000	0.324134
1703.000000	0.325452
1702.000000	0.326958
1701.000000	0.329863
1700.000000	0.334538
1699.000000	0.339899
1698.000000	0.345004
1697.000000	0.350113
1696.000000	0.355427
1695.000000	0.360097
1694.000000	0.363810
1693.000000	0.367277
1692.000000	0.371178
1691.000000	0.375918
1690.000000	0.381339
1689.000000	0.386875
1688.000000	0.392007
1687.000000	0.396921
1686.000000	0.402709
1685.000000	0.410658
1684.000000	0.419911
1683.000000	0.427407
1682.000000	0.432806
1681.000000	0.438142
1680.000000	0.443986
1679.000000	0.449794
1678.000000	0.455343
1677.000000	0.461542
1676.000000	0.469307
1675.000000	0.478183
1674.000000	0.486899
1673.000000	0.494977
1672.000000	0.502789
1671.000000	0.510949
1670.000000	0.519955
1669.000000	0.529588
1668.000000	0.538792
1667.000000	0.546707
1666.000000	0.553565
1665.000000	0.560505
1664.000000	0.568455
1663.000000	0.577191
1662.000000	0.585732
1661.000000	0.593575
1660.000000	0.600787
1659.000000	0.607290
1658.000000	0.612994
1657.000000	0.618079
1656.000000	0.622925
1655.000000	0.628124
1654.000000	0.635042
1653.000000	0.643996
1652.000000	0.651905
1651.000000	0.656690
1650.000000	0.659043
1649.000000	0.661029
1648.000000	0.664873
1647.000000	0.670103
1646.000000	0.674776
1645.000000	0.678462
1644.000000	0.681891
1643.000000	0.684935
1642.000000	0.687710
1641.000000	0.690876
1640.000000	0.694478
1639.000000	0.697855
1638.000000	0.700928
1637.000000	0.704726
1636.000000	0.709668
1635.000000	0.714096
1634.000000	0.716932
1633.000000	0.719149
1632.000000	0.721293
1631.000000	0.723094
1630.000000	0.724456
1629.000000	0.725827
1628.000000	0.727419
1627.000000	0.728621
1626.000000	0.729044
1625.000000	0.729239
1624.000000	0.729734
1623.000000	0.730042
1622.000000	0.729457
1621.000000	0.728190
1620.000000	0.726694
1619.000000	0.724851
1618.000000	0.722387
1617.000000	0.719331
1616.000000	0.715531
1615.000000	0.710487
1614.000000	0.704246
1613.000000	0.697502
1612.000000	0.690758
1611.000000	0.683802
1610.000000	0.676288
1609.000000	0.668372
1608.000000	0.660283
1607.000000	0.651837
1606.000000	0.642830
1605.000000	0.633492
1604.000000	0.624069
1603.000000	0.614355
1602.000000	0.604094
1601.000000	0.593497
1600.000000	0.582952
1599.000000	0.572499
1598.000000	0.561933
1597.000000	0.551227
1596.000000	0.540432
1595.000000	0.529365
1594.000000	0.517786
1593.000000	0.505755
1592.000000	0.493492
1591.000000	0.481015
1590.000000	0.468213
1589.000000	0.455199
1588.000000	0.442252
1587.000000	0.429516
1586.000000	0.416978
1585.000000	0.404706
1584.000000	0.392853
1583.000000	0.381439
1582.000000	0.370401
1581.000000	0.359866
1580.000000	0.350167
1579.000000	0.341426
1578.000000	0.333220
1577.000000	0.324757
1576.000000	0.315665
1575.000000	0.306569
1574.000000	0.298320
1573.000000	0.291037
1572.000000	0.284351
1571.000000	0.277917
1570.000000	0.271588
1569.000000	0.265528
1568.000000	0.260101
1567.000000	0.255518
1566.000000	0.251455
1565.000000	0.247542
1564.000000	0.243895
1563.000000	0.240844
1562.000000	0.238531
1561.000000	0.236610
1560.000000	0.234807
1559.000000	0.233383
1558.000000	0.231295
1557.000000	0.228844
1556.000000	0.227648
1555.000000	0.226905
1554.000000	0.226225
1553.000000	0.225612
1552.000000	0.225318
1551.000000	0.225302
1550.000000	0.225247
1549.000000	0.224864
1548.000000	0.224424
1547.000000	0.224493
1546.000000	0.225203
1545.000000	0.226146
1544.000000	0.226787
1543.000000	0.227062
1542.000000	0.227560
1541.000000	0.228991
1540.000000	0.230997
1539.000000	0.232286
1538.000000	0.232892
1537.000000	0.233447
1536.000000	0.234046
1535.000000	0.235389
1534.000000	0.237913
1533.000000	0.240980
1532.000000	0.243683
1531.000000	0.246162
1530.000000	0.248929
1529.000000	0.252039
1528.000000	0.255385
1527.000000	0.258866
1526.000000	0.262276
1525.000000	0.265435
1524.000000	0.268679
1523.000000	0.272925
1522.000000	0.278718
1521.000000	0.284880
1520.000000	0.289788
1519.000000	0.293689
1518.000000	0.297680
1517.000000	0.301832
1516.000000	0.305041
1515.000000	0.306639
1514.000000	0.307115
1513.000000	0.306916
1512.000000	0.306101
1511.000000	0.304793
1510.000000	0.303260
1509.000000	0.301408
1508.000000	0.298475
1507.000000	0.293083
1506.000000	0.284712
1505.000000	0.276172
1504.000000	0.269679
1503.000000	0.263968
1502.000000	0.258177
1501.000000	0.252246
1500.000000	0.246306
1499.000000	0.240609
1498.000000	0.235405
1497.000000	0.230630
1496.000000	0.226022
1495.000000	0.221719
1494.000000	0.218215
1493.000000	0.215845
1492.000000	0.214656
1491.000000	0.214483
1490.000000	0.214989
1489.000000	0.215642
1488.000000	0.216164
1487.000000	0.216872
1486.000000	0.218230
1485.000000	0.220461
1484.000000	0.223543
1483.000000	0.227433
1482.000000	0.232155
1481.000000	0.237570
1480.000000	0.243371
1479.000000	0.249565
1478.000000	0.256587
1477.000000	0.264714
1476.000000	0.273684
1475.000000	0.283325
1474.000000	0.294229
1473.000000	0.306796
1472.000000	0.319779
1471.000000	0.331562
1470.000000	0.342134
1469.000000	0.352090
1468.000000	0.361536
1467.000000	0.370414
1466.000000	0.378790
1465.000000	0.386459
1464.000000	0.392750
1463.000000	0.397480
1462.000000	0.401244
1461.000000	0.404618
1460.000000	0.408037
1459.000000	0.412099
1458.000000	0.417266
1457.000000	0.422500
1456.000000	0.425890
1455.000000	0.427410
1454.000000	0.428048
1453.000000	0.428325
1452.000000	0.428517
1451.000000	0.428633
1450.000000	0.428779
1449.000000	0.428990
1448.000000	0.429064
1447.000000	0.428850
1446.000000	0.428562
1445.000000	0.428492
1444.000000	0.428685
1443.000000	0.429121
1442.000000	0.429875
1441.000000	0.430958
1440.000000	0.432265
1439.000000	0.433840
1438.000000	0.435946
1437.000000	0.438603
1436.000000	0.441254
1435.000000	0.443482
1434.000000	0.445480
1433.000000	0.447533
1432.000000	0.449717
1431.000000	0.451971
1430.000000	0.454212
1429.000000	0.456261
1428.000000	0.457897
1427.000000	0.459189
1426.000000	0.460423
1425.000000	0.461627
1424.000000	0.462371
1423.000000	0.462320
1422.000000	0.461814
1421.000000	0.461370
1420.000000	0.460938
1419.000000	0.460035
1418.000000	0.458285
1417.000000	0.455763
1416.000000	0.452825
1415.000000	0.449852
1414.000000	0.447218
1413.000000	0.445062
1412.000000	0.443194
1411.000000	0.441373
1410.000000	0.439598
1409.000000	0.437991
1408.000000	0.436603
1407.000000	0.435454
1406.000000	0.434528
1405.000000	0.433626
1404.000000	0.432509
1403.000000	0.431306
1402.000000	0.430438
1401.000000	0.430115
1400.000000	0.430240
1399.000000	0.430601
1398.000000	0.431082
1397.000000	0.431703
1396.000000	0.432461
1395.000000	0.433270
1394.000000	0.434100
1393.000000	0.435122
1392.000000	0.436561
1391.000000	0.438550
1390.000000	0.441232
1389.000000	0.444670
1388.000000	0.448600
1387.000000	0.452481
1386.000000	0.455934
1385.000000	0.459060
1384.000000	0.462181
1383.000000	0.465466
1382.000000	0.468886
1381.000000	0.472279
1380.000000	0.475431
1379.000000	0.478172
1378.000000	0.480467
1377.000000	0.482411
1376.000000	0.484108
1375.000000	0.485510
1374.000000	0.486322
1373.000000	0.486294
1372.000000	0.485589
1371.000000	0.484560
1370.000000	0.483303
1369.000000	0.481598
1368.000000	0.479228
1367.000000	0.476344
1366.000000	0.473383
1365.000000	0.470613
1364.000000	0.467900
1363.000000	0.464880
1362.000000	0.461278
1361.000000	0.457197
1360.000000	0.453063
1359.000000	0.449284
1358.000000	0.446046
1357.000000	0.443308
1356.000000	0.440924
1355.000000	0.438835
1354.000000	0.437093
1353.000000	0.435747
1352.000000	0.434825
1351.000000	0.434407
1350.000000	0.434570
1349.000000	0.435282
1348.000000	0.436490
1347.000000	0.438239
1346.000000	0.440617
1345.000000	0.443594
1344.000000	0.447098
1343.000000	0.451208
1342.000000	0.456070
1341.000000	0.461587
1340.000000	0.467269
1339.000000	0.472546
1338.000000	0.477245
1337.000000	0.481610
1336.000000	0.485925
1335.000000	0.490322
1334.000000	0.494844
1333.000000	0.499444
1332.000000	0.503990
1331.000000	0.508374
1330.000000	0.512596
1329.000000	0.516678
1328.000000	0.520611
1327.000000	0.524452
1326.000000	0.528373
1325.000000	0.532529
1324.000000	0.536969
1323.000000	0.541735
1322.000000	0.546917
1321.000000	0.552459
1320.000000	0.557969
1319.000000	0.562791
1318.000000	0.566230
1317.000000	0.567701
1316.000000	0.566774
1315.000000	0.563273
1314.000000	0.557375
1313.000000	0.549491
1312.000000	0.540222
1311.000000	0.530354
1310.000000	0.520645
1309.000000	0.511533
1308.000000	0.503109
1307.000000	0.495400
1306.000000	0.488500
1305.000000	0.482435
1304.000000	0.477095
1303.000000	0.472370
1302.000000	0.468210
1301.000000	0.464540
1300.000000	0.461283
1299.000000	0.458463
1298.000000	0.456197
1297.000000	0.454543
1296.000000	0.453473
1295.000000	0.453007
1294.000000	0.453192
1293.000000	0.453995
1292.000000	0.455304
1291.000000	0.457058
1290.000000	0.459277
1289.000000	0.461901
1288.000000	0.464751
1287.000000	0.467677
1286.000000	0.470629
1285.000000	0.473562
1284.000000	0.476358
1283.000000	0.478909
1282.000000	0.481200
1281.000000	0.483257
1280.000000	0.485126
1279.000000	0.486925
1278.000000	0.488814
1277.000000	0.490846
1276.000000	0.492944
1275.000000	0.495050
1274.000000	0.497193
1273.000000	0.499353
1272.000000	0.501392
1271.000000	0.503187
1270.000000	0.504739
1269.000000	0.506088
1268.000000	0.507222
1267.000000	0.508132
1266.000000	0.508855
1265.000000	0.509401
1264.000000	0.509738
1263.000000	0.509888
1262.000000	0.509934
1261.000000	0.509887
1260.000000	0.509665
1259.000000	0.509265
1258.000000	0.508817
1257.000000	0.508416
1256.000000	0.508043
1255.000000	0.507686
1254.000000	0.507412
1253.000000	0.507261
1252.000000	0.507178
1251.000000	0.507121
1250.000000	0.507116
1249.000000	0.507145
1248.000000	0.507106
1247.000000	0.506935
1246.000000	0.506658
1245.000000	0.506270
1244.000000	0.505674
1243.000000	0.504832
1242.000000	0.503830
1241.000000	0.502754
1240.000000	0.501582
1239.000000	0.500262
1238.000000	0.498790
1237.000000	0.497149
1236.000000	0.495280
1235.000000	0.493156
1234.000000	0.490799
1233.000000	0.488202
1232.000000	0.485313
1231.000000	0.482128
1230.000000	0.478714
1229.000000	0.475104
1228.000000	0.471298
1227.000000	0.467348
1226.000000	0.463345
1225.000000	0.459315
1224.000000	0.455235
1223.000000	0.451155
1222.000000	0.447191
1221.000000	0.443395
1220.000000	0.439741
1219.000000	0.436235
1218.000000	0.432926
1217.000000	0.429820
1216.000000	0.426880
1215.000000	0.424116
1214.000000	0.421566
1213.000000	0.419215
1212.000000	0.417028
1211.000000	0.415044
1210.000000	0.413321
1209.000000	0.411816
1208.000000	0.410413
1207.000000	0.409046
1206.000000	0.407705
1205.000000	0.406329
1204.000000	0.404823
1203.000000	0.403153
1202.000000	0.401340
1201.000000	0.399383
1200.000000	0.397267
1199.000000	0.395049
1198.000000	0.392841
1197.000000	0.390735
1196.000000	0.388827
1195.000000	0.387269
1194.000000	0.386216
1193.000000	0.385724
1192.000000	0.385803
1191.000000	0.386526
1190.000000	0.387979
1189.000000	0.390171
1188.000000	0.393054
1187.000000	0.396612
1186.000000	0.400864
1185.000000	0.405764
1184.000000	0.411272
1183.000000	0.417480
1182.000000	0.424570
1181.000000	0.432662
1180.000000	0.441685
1179.000000	0.451485
1178.000000	0.461981
1177.000000	0.473193
1176.000000	0.485230
1175.000000	0.498238
1174.000000	0.512337
1173.000000	0.527540
1172.000000	0.543745
1171.000000	0.560864
1170.000000	0.578857
1169.000000	0.597611
1168.000000	0.616826
1167.000000	0.636115
1166.000000	0.655118
1165.000000	0.673452
1164.000000	0.690611
1163.000000	0.706123
1162.000000	0.719843
1161.000000	0.731790
1160.000000	0.741951
1159.000000	0.750385
1158.000000	0.757327
1157.000000	0.763019
1156.000000	0.767415
1155.000000	0.770443
1154.000000	0.772329
1153.000000	0.773346
1152.000000	0.773563
1151.000000	0.772986
1150.000000	0.771817
1149.000000	0.770268
1148.000000	0.768282
1147.000000	0.765782
1146.000000	0.762916
1145.000000	0.759861
1144.000000	0.756614
1143.000000	0.753203
1142.000000	0.749907
1141.000000	0.747017
1140.000000	0.744602
1139.000000	0.742727
1138.000000	0.741686
1137.000000	0.741742
1136.000000	0.742889
1135.000000	0.745062
1134.000000	0.748352
1133.000000	0.752853
1132.000000	0.758392
1131.000000	0.764718
1130.000000	0.771768
1129.000000	0.779489
1128.000000	0.787626
1127.000000	0.795888
1126.000000	0.804217
1125.000000	0.812617
1124.000000	0.820910
1123.000000	0.828959
1122.000000	0.836942
1121.000000	0.845088
1120.000000	0.853329
1119.000000	0.861561
1118.000000	0.870002
1117.000000	0.878909
1116.000000	0.888149
1115.000000	0.897401
1114.000000	0.906585
1113.000000	0.915644
1112.000000	0.924173
1111.000000	0.931762
1110.000000	0.938456
1109.000000	0.944463
1108.000000	0.949610
1107.000000	0.953626
1106.000000	0.956682
1105.000000	0.959045
1104.000000	0.960595
1103.000000	0.961163
1102.000000	0.961068
1101.000000	0.960809
1100.000000	0.960490
1099.000000	0.960110
1098.000000	0.960040
1097.000000	0.960706
1096.000000	0.962094
1095.000000	0.964094
1094.000000	0.966972
1093.000000	0.971051
1092.000000	0.976231
1091.000000	0.982278
1090.000000	0.989343
1089.000000	0.997607
1088.000000	1.006736
1087.000000	1.016283
1086.000000	1.026278
1085.000000	1.036886
1084.000000	1.047742
1083.000000	1.058301
1082.000000	1.068526
1081.000000	1.078514
1080.000000	1.087723
1079.000000	1.095371
1078.000000	1.101305
1077.000000	1.105603
1076.000000	1.107904
1075.000000	1.107884
1074.000000	1.106061
1073.000000	1.103281
1072.000000	1.099846
1071.000000	1.095991
1070.000000	1.092577
1069.000000	1.090513
1068.000000	1.089951
1067.000000	1.090763
1066.000000	1.093242
1065.000000	1.097666
1064.000000	1.103590
1063.000000	1.110301
1062.000000	1.117651
1061.000000	1.125624
1060.000000	1.133604
1059.000000	1.140923
1058.000000	1.147731
1057.000000	1.154435
1056.000000	1.160731
1055.000000	1.166088
1054.000000	1.170726
1053.000000	1.175145
1052.000000	1.179105
1051.000000	1.182143
1050.000000	1.184613
1049.000000	1.187107
1048.000000	1.189433
1047.000000	1.191203
1046.000000	1.192855
1045.000000	1.195026
1044.000000	1.197553
1043.000000	1.200061
1042.000000	1.202954
1041.000000	1.206819
1040.000000	1.211371
1039.000000	1.215962
1038.000000	1.220593
1037.000000	1.225422
1036.000000	1.229831
1035.000000	1.233066
1034.000000	1.235288
1033.000000	1.236977
1032.000000	1.237877
1031.000000	1.237585
1030.000000	1.236557
1029.000000	1.235368
1028.000000	1.233702
1027.000000	1.231049
1026.000000	1.227761
1025.000000	1.224390
1024.000000	1.220599
1023.000000	1.215813
1022.000000	1.210272
1021.000000	1.204434
1020.000000	1.198051
1019.000000	1.190701
1018.000000	1.182641
1017.000000	1.174231
1016.000000	1.165123
1015.000000	1.154946
1014.000000	1.144034
1013.000000	1.132822
1012.000000	1.121127
1011.000000	1.108715
1010.000000	1.095983
1009.000000	1.083342
1008.000000	1.070580
1007.000000	1.057435
1006.000000	1.044169
1005.000000	1.031087
1004.000000	1.017973
1003.000000	1.004558
1002.000000	0.991043
1001.000000	0.977662
1000.000000	0.964247
999.000000	0.950613
998.000000	0.936951
997.000000	0.923459
996.000000	0.909921
995.000000	0.896047
994.000000	0.881785
993.000000	0.867049
992.000000	0.851551
991.000000	0.835088
990.000000	0.817783
989.000000	0.799727
988.000000	0.780733
987.000000	0.760699
986.000000	0.739733
985.000000	0.717943
984.000000	0.695322
983.000000	0.671966
982.000000	0.648240
981.000000	0.624468
980.000000	0.600853
979.000000	0.577636
978.000000	0.555084
977.000000	0.533347
976.000000	0.512464
975.000000	0.492542
974.000000	0.473723
973.000000	0.456022
972.000000	0.439349
971.000000	0.423677
970.000000	0.409005
969.000000	0.395238
968.000000	0.382251
967.000000	0.369995
966.000000	0.358443
965.000000	0.347493
964.000000	0.337020
963.000000	0.326996
962.000000	0.317400
961.000000	0.308131
960.000000	0.299117
959.000000	0.290402
958.000000	0.282047
957.000000	0.274008
956.000000	0.266216
955.000000	0.258695
954.000000	0.251480
953.000000	0.244537
952.000000	0.237841
951.000000	0.231457
950.000000	0.225461
949.000000	0.219874
948.000000	0.214764
947.000000	0.210261
946.000000	0.206415
945.000000	0.203130
944.000000	0.200284
943.000000	0.197825
942.000000	0.195658
941.000000	0.193588
940.000000	0.191479
939.000000	0.189343
938.000000	0.187223
937.000000	0.185095
936.000000	0.182950
935.000000	0.180860
934.000000	0.178871
933.000000	0.176952
932.000000	0.175106
931.000000	0.173417
930.000000	0.171909
929.000000	0.170487
928.000000	0.169078
927.000000	0.167697
926.000000	0.166318
925.000000	0.164800
924.000000	0.163035
923.000000	0.161042
922.000000	0.158843
921.000000	0.156385
920.000000	0.153651
919.000000	0.150716
918.000000	0.147630
917.000000	0.144343
916.000000	0.140844
915.000000	0.137199
914.000000	0.133413
913.000000	0.129383
912.000000	0.125064
911.000000	0.120566
910.000000	0.116002
909.000000	0.111397
908.000000	0.106824
907.000000	0.102473
906.000000	0.098496
905.000000	0.094921
904.000000	0.091773
903.000000	0.089126
902.000000	0.086978
901.000000	0.085182
900.000000	0.083608
899.000000	0.082201
898.000000	0.080841
897.000000	0.079318
896.000000	0.077514
895.000000	0.075474
894.000000	0.073237
893.000000	0.070751
892.000000	0.068000
891.000000	0.065075
890.000000	0.062022
889.000000	0.058779
888.000000	0.055337
887.000000	0.051808
886.000000	0.048284
885.000000	0.044781
884.000000	0.041375
883.000000	0.038230
882.000000	0.035411
881.000000	0.032836
880.000000	0.030473
879.000000	0.028421
878.000000	0.026725
877.000000	0.025307
876.000000	0.024132
875.000000	0.023274
874.000000	0.022741
873.000000	0.022398
872.000000	0.022153
871.000000	0.022037
870.000000	0.022058
869.000000	0.022151
868.000000	0.022319
867.000000	0.022638
866.000000	0.023075
865.000000	0.023443
864.000000	0.023610
863.000000	0.023591
862.000000	0.023383
861.000000	0.022919
860.000000	0.022223
859.000000	0.021450
858.000000	0.020687
857.000000	0.019856
856.000000	0.018886
855.000000	0.017808
854.000000	0.016623
853.000000	0.015266
852.000000	0.013756
851.000000	0.012227
850.000000	0.010745
849.000000	0.009261
848.000000	0.007794
847.000000	0.006483
846.000000	0.005404
845.000000	0.004504
844.000000	0.003786
843.000000	0.003377
842.000000	0.003351
841.000000	0.003643
840.000000	0.004200
839.000000	0.005043
838.000000	0.006128
837.000000	0.007294
836.000000	0.008418
835.000000	0.009444
834.000000	0.010223
833.000000	0.010505
832.000000	0.010183
831.000000	0.009386
830.000000	0.008291
829.000000	0.007017
828.000000	0.005759
827.000000	0.004811
826.000000	0.004334
825.000000	0.004255
824.000000	0.004471
823.000000	0.004967
822.000000	0.005673
821.000000	0.006438
820.000000	0.007201
819.000000	0.008035
818.000000	0.008951
817.000000	0.009843
816.000000	0.010665
815.000000	0.011490
814.000000	0.012334
813.000000	0.013125
812.000000	0.013903
811.000000	0.014877
810.000000	0.016210
809.000000	0.017889
808.000000	0.019885
807.000000	0.022253
806.000000	0.025000
805.000000	0.028021
804.000000	0.031241
803.000000	0.034674
802.000000	0.038276
801.000000	0.041882
800.000000	0.045338
799.000000	0.048556
798.000000	0.051382
797.000000	0.053633
796.000000	0.055326
795.000000	0.056758
794.000000	0.058273
793.000000	0.060122
792.000000	0.062570
791.000000	0.065956
790.000000	0.070542
789.000000	0.076459
788.000000	0.083874
787.000000	0.093017
786.000000	0.103906
785.000000	0.116091
784.000000	0.128649
783.000000	0.140266
782.000000	0.149383
781.000000	0.154616
780.000000	0.155421
779.000000	0.152407
778.000000	0.146913
777.000000	0.140391
776.000000	0.134035
775.000000	0.128638
774.000000	0.124479
773.000000	0.121395
772.000000	0.119101
771.000000	0.117403
770.000000	0.116158
769.000000	0.115232
768.000000	0.114598
767.000000	0.114298
766.000000	0.114232
765.000000	0.114103
764.000000	0.113651
763.000000	0.112779
762.000000	0.111409
761.000000	0.109409
760.000000	0.106753
759.000000	0.103594
758.000000	0.100073
757.000000	0.096211
756.000000	0.092042
755.000000	0.087708
754.000000	0.083324
753.000000	0.078923
752.000000	0.074589
751.000000	0.070482
750.000000	0.066669
749.000000	0.063073
748.000000	0.059665
747.000000	0.056532
746.000000	0.053696
745.000000	0.051047
744.000000	0.048541
743.000000	0.046293
742.000000	0.044410
741.000000	0.042862
740.000000	0.041605
739.000000	0.040670
738.000000	0.040062
737.000000	0.039723
736.000000	0.039671
735.000000	0.040015
734.000000	0.040774
733.000000	0.041836
732.000000	0.043121
731.000000	0.044654
730.000000	0.046408
729.000000	0.048250
728.000000	0.050136
727.000000	0.052176
726.000000	0.054463
725.000000	0.056954
724.000000	0.059590
723.000000	0.062386
722.000000	0.065331
721.000000	0.068333
720.000000	0.071347
719.000000	0.074420
718.000000	0.077555
717.000000	0.080666
716.000000	0.083720
715.000000	0.086764
714.000000	0.089748
713.000000	0.092486
712.000000	0.094875
711.000000	0.097006
710.000000	0.098982
709.000000	0.100763
708.000000	0.102292
707.000000	0.103610
706.000000	0.104764
705.000000	0.105733
704.000000	0.106544
703.000000	0.107323
702.000000	0.108172
701.000000	0.109114
700.000000	0.110237
699.000000	0.111699
698.000000	0.113509
697.000000	0.115440
696.000000	0.117233
695.000000	0.118769
694.000000	0.119960
693.000000	0.120678
692.000000	0.120932
691.000000	0.120951
690.000000	0.120956
689.000000	0.121012
688.000000	0.121168
687.000000	0.121562
686.000000	0.122259
685.000000	0.123174
684.000000	0.124272
683.000000	0.125678
682.000000	0.127448
681.000000	0.129448
680.000000	0.131585
679.000000	0.133960
678.000000	0.136644
677.000000	0.139485
676.000000	0.142327
675.000000	0.145144
674.000000	0.147933
673.000000	0.150574
672.000000	0.152865
671.000000	0.154690
670.000000	0.156102
669.000000	0.157295
668.000000	0.158519
667.000000	0.159969
666.000000	0.161449
665.000000	0.162560
664.000000	0.163195
663.000000	0.163505
662.000000	0.163625
661.000000	0.163538
660.000000	0.163219
659.000000	0.162803
658.000000	0.162452
657.000000	0.162235
656.000000	0.162221
655.000000	0.162480
654.000000	0.163005
653.000000	0.163739
652.000000	0.164661
651.000000	0.165792
650.000000	0.167111
649.000000	0.168553
648.000000	0.170112
647.000000	0.171832
646.000000	0.173673
645.000000	0.175466
644.000000	0.177081
643.000000	0.178541
642.000000	0.179926
641.000000	0.181250
640.000000	0.182504
639.000000	0.183720
638.000000	0.184940
637.000000	0.186162
636.000000	0.187367
635.000000	0.188532
634.000000	0.189609
633.000000	0.190567
632.000000	0.191507
631.000000	0.192627
630.000000	0.194022
629.000000	0.195617
628.000000	0.197335
627.000000	0.199199
626.000000	0.201230
625.000000	0.203367
624.000000	0.205577
623.000000	0.207921
622.000000	0.210407
621.000000	0.212867
620.000000	0.215078
619.000000	0.216922
618.000000	0.218386
617.000000	0.219488
616.000000	0.220329
615.000000	0.221086
614.000000	0.221875
613.000000	0.222646
612.000000	0.223285
611.000000	0.223745
610.000000	0.223991
609.000000	0.223923
608.000000	0.223483
607.000000	0.222767
606.000000	0.221949
605.000000	0.221131
604.000000	0.220367
603.000000	0.219722
602.000000	0.219184
601.000000	0.218629
600.000000	0.218010
599.000000	0.217473
598.000000	0.217159
597.000000	0.217020
596.000000	0.216960
595.000000	0.217028
594.000000	0.217299
593.000000	0.217671
592.000000	0.217973
591.000000	0.218219
590.000000	0.218632
589.000000	0.219433
588.000000	0.220731
587.000000	0.222507
586.000000	0.224601
585.000000	0.226780
584.000000	0.228943
583.000000	0.231146
582.000000	0.233374
581.000000	0.235421
580.000000	0.237109
579.000000	0.238484
578.000000	0.239668
577.000000	0.240589
576.000000	0.241046
575.000000	0.240984
574.000000	0.240553
573.000000	0.239930
572.000000	0.239195
571.000000	0.238381
570.000000	0.237492
569.000000	0.236493
568.000000	0.235424
567.000000	0.234467
566.000000	0.233799
565.000000	0.233453
564.000000	0.233395
563.000000	0.233611
562.000000	0.233986
561.000000	0.234242
560.000000	0.234143
559.000000	0.233711
558.000000	0.233124
557.000000	0.232498
556.000000	0.231871
555.000000	0.231312
554.000000	0.230904
553.000000	0.230679
552.000000	0.230687
551.000000	0.231020
550.000000	0.231692
549.000000	0.232634
548.000000	0.233874
547.000000	0.235554
546.000000	0.237697
545.000000	0.240123
544.000000	0.242731
543.000000	0.245662
542.000000	0.249076
541.000000	0.252952
540.000000	0.257165
539.000000	0.261591
538.000000	0.266024
537.000000	0.270150
536.000000	0.273699
535.000000	0.276553
534.000000	0.278697
533.000000	0.280150
532.000000	0.281033
531.000000	0.281561
530.000000	0.281895
529.000000	0.282043
528.000000	0.281952
527.000000	0.281626
526.000000	0.281072
525.000000	0.280297
524.000000	0.279415
523.000000	0.278627
522.000000	0.278030
521.000000	0.277486
520.000000	0.276731
519.000000	0.275502
518.000000	0.273553
517.000000	0.270722
516.000000	0.267105
515.000000	0.263048
514.000000	0.258818
513.000000	0.254364
512.000000	0.249552
511.000000	0.244483
510.000000	0.239399
509.000000	0.234385
508.000000	0.229394
507.000000	0.224485
506.000000	0.219815
505.000000	0.215472
504.000000	0.211446
503.000000	0.207701
502.000000	0.204128
501.000000	0.200642
500.000000	0.197430
499.000000	0.194817
498.000000	0.192833
497.000000	0.191153
496.000000	0.189612
495.000000	0.188466
494.000000	0.187943
493.000000	0.187868
492.000000	0.187965
491.000000	0.188246
490.000000	0.188875
489.000000	0.189866
488.000000	0.191221
487.000000	0.193027
486.000000	0.195205
485.000000	0.197469
484.000000	0.199720
483.000000	0.202144
482.000000	0.204720
481.000000	0.207073
480.000000	0.209004
479.000000	0.210758
478.000000	0.212504
477.000000	0.213956
476.000000	0.214815
475.000000	0.215186
474.000000	0.215300
473.000000	0.215026
472.000000	0.214058
471.000000	0.212456
470.000000	0.210450
469.000000	0.207928
468.000000	0.204609
467.000000	0.200492
466.000000	0.195862
465.000000	0.190982
464.000000	0.186096
463.000000	0.181514
462.000000	0.177278
461.000000	0.173040
460.000000	0.168544
459.000000	0.163925
458.000000	0.159231
457.000000	0.154173
456.000000	0.148868
455.000000	0.143968
454.000000	0.139675
453.000000	0.135472
452.000000	0.130996
451.000000	0.126667
450.000000	0.123053
449.000000	0.120094
448.000000	0.117515
447.000000	0.115349
446.000000	0.113548
445.000000	0.111592
444.000000	0.109083
443.000000	0.106290
442.000000	0.103589
441.000000	0.100924
440.000000	0.098316
439.000000	0.096177
438.000000	0.094634
437.000000	0.093131
436.000000	0.091200
435.000000	0.089136
434.000000	0.087275
433.000000	0.085313
432.000000	0.082973
431.000000	0.080594
430.000000	0.078344
429.000000	0.075756
428.000000	0.072719
427.000000	0.070015
426.000000	0.068097
425.000000	0.066227
424.000000	0.063654
423.000000	0.060711
422.000000	0.057970
421.000000	0.055270
420.000000	0.052487
419.000000	0.049852
418.000000	0.046649
417.000000	0.042093
416.000000	0.036790
415.000000	0.032117
414.000000	0.028589
413.000000	0.025189
412.000000	0.021179
411.000000	0.017455
410.000000	0.014647
409.000000	0.011667
408.000000	0.007687
407.000000	0.003790
406.000000	0.001115
405.000000	-0.000918
404.000000	-0.002464
403.000000	-0.002178
402.000000	0.001575
401.000000	0.006480
400.000000	0.010828
