PE IR       SUBTECH     SPECTRUM    ASCII       PEDS        4.00        
   -1
G001-30C.asc
17/02/23
10:41:42.00
17/02/23
10:42:24.00
Administrator
Sample 125 By Administrator Date Thursday, February 23 2017
400.000000
#HDR
-1
-1
#GR
cm-1
A
1.0
0.0
4000.000000
-1.000000
3601
8
1.290419
0.000174
#DATA
4000.000000	0.006658
3999.000000	0.006823
3998.000000	0.006996
3997.000000	0.007170
3996.000000	0.007341
3995.000000	0.007505
3994.000000	0.007665
3993.000000	0.007827
3992.000000	0.007987
3991.000000	0.008140
3990.000000	0.008282
3989.000000	0.008417
3988.000000	0.008557
3987.000000	0.008708
3986.000000	0.008867
3985.000000	0.009029
3984.000000	0.009189
3983.000000	0.009346
3982.000000	0.009502
3981.000000	0.009661
3980.000000	0.009828
3979.000000	0.010006
3978.000000	0.010198
3977.000000	0.010393
3976.000000	0.010581
3975.000000	0.010754
3974.000000	0.010912
3973.000000	0.011059
3972.000000	0.011199
3971.000000	0.011331
3970.000000	0.011455
3969.000000	0.011574
3968.000000	0.011696
3967.000000	0.011834
3966.000000	0.011997
3965.000000	0.012185
3964.000000	0.012386
3963.000000	0.012581
3962.000000	0.012759
3961.000000	0.012916
3960.000000	0.013061
3959.000000	0.013202
3958.000000	0.013340
3957.000000	0.013477
3956.000000	0.013624
3955.000000	0.013800
3954.000000	0.014023
3953.000000	0.014297
3952.000000	0.014604
3951.000000	0.014904
3950.000000	0.015165
3949.000000	0.015378
3948.000000	0.015564
3947.000000	0.015757
3946.000000	0.015974
3945.000000	0.016198
3944.000000	0.016378
3943.000000	0.016471
3942.000000	0.016484
3941.000000	0.016466
3940.000000	0.016472
3939.000000	0.016534
3938.000000	0.016664
3937.000000	0.016875
3936.000000	0.017180
3935.000000	0.017564
3934.000000	0.017962
3933.000000	0.018291
3932.000000	0.018503
3931.000000	0.018626
3930.000000	0.018727
3929.000000	0.018863
3928.000000	0.019040
3927.000000	0.019236
3926.000000	0.019420
3925.000000	0.019579
3924.000000	0.019733
3923.000000	0.019930
3922.000000	0.020199
3921.000000	0.020515
3920.000000	0.020808
3919.000000	0.021024
3918.000000	0.021144
3917.000000	0.021174
3916.000000	0.021127
3915.000000	0.021041
3914.000000	0.020962
3913.000000	0.020918
3912.000000	0.020933
3911.000000	0.021052
3910.000000	0.021341
3909.000000	0.021847
3908.000000	0.022548
3907.000000	0.023370
3906.000000	0.024227
3905.000000	0.025048
3904.000000	0.025781
3903.000000	0.026379
3902.000000	0.026790
3901.000000	0.026965
3900.000000	0.026875
3899.000000	0.026577
3898.000000	0.026222
3897.000000	0.025982
3896.000000	0.025938
3895.000000	0.026049
3894.000000	0.026207
3893.000000	0.026350
3892.000000	0.026507
3891.000000	0.026739
3890.000000	0.027080
3889.000000	0.027527
3888.000000	0.028030
3887.000000	0.028509
3886.000000	0.028909
3885.000000	0.029250
3884.000000	0.029588
3883.000000	0.029911
3882.000000	0.030121
3881.000000	0.030143
3880.000000	0.030034
3879.000000	0.029955
3878.000000	0.030046
3877.000000	0.030338
3876.000000	0.030771
3875.000000	0.031264
3874.000000	0.031767
3873.000000	0.032275
3872.000000	0.032792
3871.000000	0.033296
3870.000000	0.033732
3869.000000	0.034080
3868.000000	0.034398
3867.000000	0.034736
3866.000000	0.035018
3865.000000	0.035116
3864.000000	0.035023
3863.000000	0.034880
3862.000000	0.034836
3861.000000	0.034976
3860.000000	0.035334
3859.000000	0.035929
3858.000000	0.036738
3857.000000	0.037656
3856.000000	0.038510
3855.000000	0.039188
3854.000000	0.039757
3853.000000	0.040267
3852.000000	0.040578
3851.000000	0.040582
3850.000000	0.040327
3849.000000	0.039928
3848.000000	0.039528
3847.000000	0.039278
3846.000000	0.039278
3845.000000	0.039570
3844.000000	0.040138
3843.000000	0.040908
3842.000000	0.041765
3841.000000	0.042590
3840.000000	0.043285
3839.000000	0.043837
3838.000000	0.044308
3837.000000	0.044735
3836.000000	0.045078
3835.000000	0.045266
3834.000000	0.045280
3833.000000	0.045172
3832.000000	0.045034
3831.000000	0.044963
3830.000000	0.045014
3829.000000	0.045193
3828.000000	0.045493
3827.000000	0.045927
3826.000000	0.046509
3825.000000	0.047235
3824.000000	0.048047
3823.000000	0.048850
3822.000000	0.049595
3821.000000	0.050274
3820.000000	0.050875
3819.000000	0.051369
3818.000000	0.051711
3817.000000	0.051861
3816.000000	0.051829
3815.000000	0.051725
3814.000000	0.051708
3813.000000	0.051862
3812.000000	0.052151
3811.000000	0.052485
3810.000000	0.052813
3809.000000	0.053186
3808.000000	0.053727
3807.000000	0.054512
3806.000000	0.055489
3805.000000	0.056511
3804.000000	0.057420
3803.000000	0.058113
3802.000000	0.058621
3801.000000	0.059059
3800.000000	0.059505
3799.000000	0.059926
3798.000000	0.060218
3797.000000	0.060302
3796.000000	0.060221
3795.000000	0.060127
3794.000000	0.060161
3793.000000	0.060351
3792.000000	0.060640
3791.000000	0.060987
3790.000000	0.061411
3789.000000	0.061934
3788.000000	0.062535
3787.000000	0.063170
3786.000000	0.063825
3785.000000	0.064512
3784.000000	0.065237
3783.000000	0.065992
3782.000000	0.066746
3781.000000	0.067447
3780.000000	0.068052
3779.000000	0.068569
3778.000000	0.069051
3777.000000	0.069559
3776.000000	0.070131
3775.000000	0.070773
3774.000000	0.071472
3773.000000	0.072217
3772.000000	0.073010
3771.000000	0.073853
3770.000000	0.074739
3769.000000	0.075639
3768.000000	0.076500
3767.000000	0.077280
3766.000000	0.077967
3765.000000	0.078588
3764.000000	0.079207
3763.000000	0.079906
3762.000000	0.080711
3761.000000	0.081561
3760.000000	0.082393
3759.000000	0.083249
3758.000000	0.084207
3757.000000	0.085284
3756.000000	0.086444
3755.000000	0.087658
3754.000000	0.088896
3753.000000	0.090090
3752.000000	0.091253
3751.000000	0.092558
3750.000000	0.094099
3749.000000	0.095691
3748.000000	0.097059
3747.000000	0.098058
3746.000000	0.098741
3745.000000	0.099296
3744.000000	0.099877
3743.000000	0.100521
3742.000000	0.101231
3741.000000	0.101985
3740.000000	0.102741
3739.000000	0.103536
3738.000000	0.104503
3737.000000	0.105696
3736.000000	0.106960
3735.000000	0.108062
3734.000000	0.108925
3733.000000	0.109618
3732.000000	0.110224
3731.000000	0.110807
3730.000000	0.111448
3729.000000	0.112221
3728.000000	0.113135
3727.000000	0.114147
3726.000000	0.115235
3725.000000	0.116412
3724.000000	0.117668
3723.000000	0.118943
3722.000000	0.120192
3721.000000	0.121417
3720.000000	0.122660
3719.000000	0.123995
3718.000000	0.125487
3717.000000	0.127149
3716.000000	0.128964
3715.000000	0.130931
3714.000000	0.133062
3713.000000	0.135359
3712.000000	0.137789
3711.000000	0.140291
3710.000000	0.142766
3709.000000	0.145127
3708.000000	0.147336
3707.000000	0.149434
3706.000000	0.151518
3705.000000	0.153672
3704.000000	0.155928
3703.000000	0.158278
3702.000000	0.160679
3701.000000	0.163022
3700.000000	0.165152
3699.000000	0.166982
3698.000000	0.168533
3697.000000	0.169879
3696.000000	0.171129
3695.000000	0.172438
3694.000000	0.173939
3693.000000	0.175650
3692.000000	0.177489
3691.000000	0.179425
3690.000000	0.181589
3689.000000	0.184078
3688.000000	0.186726
3687.000000	0.189260
3686.000000	0.191586
3685.000000	0.193783
3684.000000	0.195981
3683.000000	0.198338
3682.000000	0.201044
3681.000000	0.204198
3680.000000	0.207704
3679.000000	0.211414
3678.000000	0.215371
3677.000000	0.219816
3676.000000	0.224835
3675.000000	0.230061
3674.000000	0.235004
3673.000000	0.239526
3672.000000	0.243790
3671.000000	0.247991
3670.000000	0.252249
3669.000000	0.256574
3668.000000	0.260882
3667.000000	0.265086
3666.000000	0.269183
3665.000000	0.273253
3664.000000	0.277454
3663.000000	0.281966
3662.000000	0.286868
3661.000000	0.292056
3660.000000	0.297344
3659.000000	0.302684
3658.000000	0.308236
3657.000000	0.314138
3656.000000	0.320263
3655.000000	0.326325
3654.000000	0.332194
3653.000000	0.337950
3652.000000	0.343748
3651.000000	0.349754
3650.000000	0.356132
3649.000000	0.362853
3648.000000	0.369514
3647.000000	0.375611
3646.000000	0.380959
3645.000000	0.385730
3644.000000	0.390229
3643.000000	0.394747
3642.000000	0.399500
3641.000000	0.404596
3640.000000	0.410032
3639.000000	0.415744
3638.000000	0.421651
3637.000000	0.427705
3636.000000	0.433901
3635.000000	0.440218
3634.000000	0.446540
3633.000000	0.452723
3632.000000	0.458810
3631.000000	0.465145
3630.000000	0.472149
3629.000000	0.479780
3628.000000	0.487401
3627.000000	0.494400
3626.000000	0.500648
3625.000000	0.506286
3624.000000	0.511481
3623.000000	0.516444
3622.000000	0.521435
3621.000000	0.526623
3620.000000	0.531991
3619.000000	0.537413
3618.000000	0.542745
3617.000000	0.547864
3616.000000	0.552733
3615.000000	0.557452
3614.000000	0.562191
3613.000000	0.567046
3612.000000	0.572026
3611.000000	0.577175
3610.000000	0.582576
3609.000000	0.588176
3608.000000	0.593771
3607.000000	0.599203
3606.000000	0.604461
3605.000000	0.609569
3604.000000	0.614543
3603.000000	0.619488
3602.000000	0.624592
3601.000000	0.629932
3600.000000	0.635393
3599.000000	0.640850
3598.000000	0.646284
3597.000000	0.651720
3596.000000	0.657174
3595.000000	0.662679
3594.000000	0.668250
3593.000000	0.673794
3592.000000	0.679186
3591.000000	0.684478
3590.000000	0.689929
3589.000000	0.695764
3588.000000	0.701962
3587.000000	0.708279
3586.000000	0.714385
3585.000000	0.720002
3584.000000	0.725041
3583.000000	0.729682
3582.000000	0.734240
3581.000000	0.738909
3580.000000	0.743712
3579.000000	0.748652
3578.000000	0.753767
3577.000000	0.759019
3576.000000	0.764298
3575.000000	0.769580
3574.000000	0.774932
3573.000000	0.780370
3572.000000	0.785821
3571.000000	0.791276
3570.000000	0.796824
3569.000000	0.802503
3568.000000	0.808239
3567.000000	0.813949
3566.000000	0.819563
3565.000000	0.824943
3564.000000	0.829979
3563.000000	0.834738
3562.000000	0.839391
3561.000000	0.844008
3560.000000	0.848559
3559.000000	0.853087
3558.000000	0.857706
3557.000000	0.862430
3556.000000	0.867189
3555.000000	0.872018
3554.000000	0.877023
3553.000000	0.882165
3552.000000	0.887251
3551.000000	0.892195
3550.000000	0.897107
3549.000000	0.902126
3548.000000	0.907301
3547.000000	0.912623
3546.000000	0.917989
3545.000000	0.923132
3544.000000	0.927795
3543.000000	0.931991
3542.000000	0.935944
3541.000000	0.939840
3540.000000	0.943803
3539.000000	0.948018
3538.000000	0.952596
3537.000000	0.957345
3536.000000	0.961907
3535.000000	0.966158
3534.000000	0.970270
3533.000000	0.974402
3532.000000	0.978573
3531.000000	0.982813
3530.000000	0.987197
3529.000000	0.991694
3528.000000	0.996217
3527.000000	1.000805
3526.000000	1.005553
3525.000000	1.010337
3524.000000	1.014856
3523.000000	1.018969
3522.000000	1.022794
3521.000000	1.026487
3520.000000	1.030149
3519.000000	1.033908
3518.000000	1.037882
3517.000000	1.042028
3516.000000	1.046213
3515.000000	1.050397
3514.000000	1.054568
3513.000000	1.058594
3512.000000	1.062362
3511.000000	1.066011
3510.000000	1.069786
3509.000000	1.073698
3508.000000	1.077594
3507.000000	1.081478
3506.000000	1.085504
3505.000000	1.089675
3504.000000	1.093796
3503.000000	1.097722
3502.000000	1.101430
3501.000000	1.104891
3500.000000	1.108125
3499.000000	1.111306
3498.000000	1.114588
3497.000000	1.117876
3496.000000	1.120988
3495.000000	1.123970
3494.000000	1.126982
3493.000000	1.130005
3492.000000	1.132923
3491.000000	1.135803
3490.000000	1.138825
3489.000000	1.141958
3488.000000	1.145004
3487.000000	1.147892
3486.000000	1.150690
3485.000000	1.153394
3484.000000	1.155999
3483.000000	1.158682
3482.000000	1.161609
3481.000000	1.164618
3480.000000	1.167382
3479.000000	1.169810
3478.000000	1.172051
3477.000000	1.174197
3476.000000	1.176272
3475.000000	1.178427
3474.000000	1.180854
3473.000000	1.183556
3472.000000	1.186432
3471.000000	1.189481
3470.000000	1.192662
3469.000000	1.195673
3468.000000	1.198184
3467.000000	1.200222
3466.000000	1.202065
3465.000000	1.203885
3464.000000	1.205760
3463.000000	1.207868
3462.000000	1.210332
3461.000000	1.212939
3460.000000	1.215349
3459.000000	1.217508
3458.000000	1.219610
3457.000000	1.221754
3456.000000	1.223922
3455.000000	1.226175
3454.000000	1.228568
3453.000000	1.230963
3452.000000	1.233209
3451.000000	1.235416
3450.000000	1.237780
3449.000000	1.240249
3448.000000	1.242627
3447.000000	1.244891
3446.000000	1.247126
3445.000000	1.249255
3444.000000	1.251166
3443.000000	1.252979
3442.000000	1.254915
3441.000000	1.257015
3440.000000	1.259231
3439.000000	1.261636
3438.000000	1.264239
3437.000000	1.266733
3436.000000	1.268734
3435.000000	1.270210
3434.000000	1.271409
3433.000000	1.272518
3432.000000	1.273635
3431.000000	1.274883
3430.000000	1.276244
3429.000000	1.277431
3428.000000	1.278223
3427.000000	1.278795
3426.000000	1.279455
3425.000000	1.280237
3424.000000	1.281024
3423.000000	1.281860
3422.000000	1.282814
3421.000000	1.283710
3420.000000	1.284324
3419.000000	1.284724
3418.000000	1.285124
3417.000000	1.285564
3416.000000	1.286010
3415.000000	1.286556
3414.000000	1.287242
3413.000000	1.287830
3412.000000	1.288087
3411.000000	1.288128
3410.000000	1.288188
3409.000000	1.288213
3408.000000	1.288016
3407.000000	1.287677
3406.000000	1.287495
3405.000000	1.287647
3404.000000	1.288149
3403.000000	1.288967
3402.000000	1.289882
3401.000000	1.290419
3400.000000	1.290232
3399.000000	1.289482
3398.000000	1.288611
3397.000000	1.287894
3396.000000	1.287457
3395.000000	1.287459
3394.000000	1.287917
3393.000000	1.288478
3392.000000	1.288676
3391.000000	1.288378
3390.000000	1.287751
3389.000000	1.286975
3388.000000	1.286212
3387.000000	1.285674
3386.000000	1.285445
3385.000000	1.285357
3384.000000	1.285241
3383.000000	1.285171
3382.000000	1.285251
3381.000000	1.285356
3380.000000	1.285320
3379.000000	1.285203
3378.000000	1.285116
3377.000000	1.284984
3376.000000	1.284712
3375.000000	1.284435
3374.000000	1.284355
3373.000000	1.284471
3372.000000	1.284691
3371.000000	1.285010
3370.000000	1.285357
3369.000000	1.285453
3368.000000	1.285074
3367.000000	1.284327
3366.000000	1.283463
3365.000000	1.282589
3364.000000	1.281758
3363.000000	1.281118
3362.000000	1.280716
3361.000000	1.280333
3360.000000	1.279765
3359.000000	1.279084
3358.000000	1.278443
3357.000000	1.277802
3356.000000	1.277093
3355.000000	1.276440
3354.000000	1.275987
3353.000000	1.275637
3352.000000	1.275177
3351.000000	1.274523
3350.000000	1.273652
3349.000000	1.272488
3348.000000	1.271074
3347.000000	1.269670
3346.000000	1.268472
3345.000000	1.267376
3344.000000	1.266194
3343.000000	1.264934
3342.000000	1.263671
3341.000000	1.262347
3340.000000	1.260882
3339.000000	1.259315
3338.000000	1.257662
3337.000000	1.255799
3336.000000	1.253684
3335.000000	1.251500
3334.000000	1.249413
3333.000000	1.247358
3332.000000	1.245228
3331.000000	1.243087
3330.000000	1.241014
3329.000000	1.238929
3328.000000	1.236753
3327.000000	1.234549
3326.000000	1.232356
3325.000000	1.230048
3324.000000	1.227546
3323.000000	1.224989
3322.000000	1.222517
3321.000000	1.220079
3320.000000	1.217599
3319.000000	1.215160
3318.000000	1.212847
3317.000000	1.210581
3316.000000	1.208274
3315.000000	1.205990
3314.000000	1.203803
3313.000000	1.201644
3312.000000	1.199453
3311.000000	1.197312
3310.000000	1.195290
3309.000000	1.193293
3308.000000	1.191230
3307.000000	1.189148
3306.000000	1.187072
3305.000000	1.184873
3304.000000	1.182468
3303.000000	1.179990
3302.000000	1.177619
3301.000000	1.175370
3300.000000	1.173195
3299.000000	1.171119
3298.000000	1.169146
3297.000000	1.167170
3296.000000	1.165116
3295.000000	1.163055
3294.000000	1.161044
3293.000000	1.158991
3292.000000	1.156805
3291.000000	1.154544
3290.000000	1.152293
3289.000000	1.150033
3288.000000	1.147741
3287.000000	1.145490
3286.000000	1.143314
3285.000000	1.141113
3284.000000	1.138811
3283.000000	1.136471
3282.000000	1.134166
3281.000000	1.131850
3280.000000	1.129486
3279.000000	1.127133
3278.000000	1.124823
3277.000000	1.122465
3276.000000	1.119996
3275.000000	1.117493
3274.000000	1.115027
3273.000000	1.112545
3272.000000	1.109971
3271.000000	1.107322
3270.000000	1.104619
3269.000000	1.101818
3268.000000	1.098920
3267.000000	1.096028
3266.000000	1.093205
3265.000000	1.090383
3264.000000	1.087500
3263.000000	1.084601
3262.000000	1.081721
3261.000000	1.078805
3260.000000	1.075819
3259.000000	1.072829
3258.000000	1.069877
3257.000000	1.066903
3256.000000	1.063856
3255.000000	1.060779
3254.000000	1.057699
3253.000000	1.054560
3252.000000	1.051335
3251.000000	1.048099
3250.000000	1.044914
3249.000000	1.041744
3248.000000	1.038547
3247.000000	1.035346
3246.000000	1.032141
3245.000000	1.028868
3244.000000	1.025513
3243.000000	1.022155
3242.000000	1.018845
3241.000000	1.015532
3240.000000	1.012169
3239.000000	1.008791
3238.000000	1.005422
3237.000000	1.002033
3236.000000	0.998621
3235.000000	0.995244
3234.000000	0.991903
3233.000000	0.988512
3232.000000	0.985027
3231.000000	0.981508
3230.000000	0.978005
3229.000000	0.974486
3228.000000	0.970928
3227.000000	0.967380
3226.000000	0.963866
3225.000000	0.960327
3224.000000	0.956723
3223.000000	0.953099
3222.000000	0.949494
3221.000000	0.945881
3220.000000	0.942235
3219.000000	0.938585
3218.000000	0.934941
3217.000000	0.931258
3216.000000	0.927518
3215.000000	0.923774
3214.000000	0.920057
3213.000000	0.916322
3212.000000	0.912534
3211.000000	0.908722
3210.000000	0.904911
3209.000000	0.901075
3208.000000	0.897202
3207.000000	0.893331
3206.000000	0.889483
3205.000000	0.885622
3204.000000	0.881732
3203.000000	0.877847
3202.000000	0.873977
3201.000000	0.870081
3200.000000	0.866138
3199.000000	0.862184
3198.000000	0.858246
3197.000000	0.854297
3196.000000	0.850322
3195.000000	0.846350
3194.000000	0.842395
3193.000000	0.838429
3192.000000	0.834440
3191.000000	0.830466
3190.000000	0.826524
3189.000000	0.822585
3188.000000	0.818626
3187.000000	0.814669
3186.000000	0.810725
3185.000000	0.806766
3184.000000	0.802785
3183.000000	0.798817
3182.000000	0.794881
3181.000000	0.790952
3180.000000	0.787012
3179.000000	0.783071
3178.000000	0.779133
3177.000000	0.775176
3176.000000	0.771200
3175.000000	0.767241
3174.000000	0.763312
3173.000000	0.759383
3172.000000	0.755440
3171.000000	0.751510
3170.000000	0.747610
3169.000000	0.743713
3168.000000	0.739805
3167.000000	0.735908
3166.000000	0.732035
3165.000000	0.728170
3164.000000	0.724306
3163.000000	0.720466
3162.000000	0.716657
3161.000000	0.712849
3160.000000	0.709020
3159.000000	0.705188
3158.000000	0.701374
3157.000000	0.697577
3156.000000	0.693804
3155.000000	0.690080
3154.000000	0.686399
3153.000000	0.682711
3152.000000	0.678968
3151.000000	0.675174
3150.000000	0.671359
3149.000000	0.667549
3148.000000	0.663769
3147.000000	0.660037
3146.000000	0.656350
3145.000000	0.652684
3144.000000	0.649026
3143.000000	0.645392
3142.000000	0.641791
3141.000000	0.638208
3140.000000	0.634626
3139.000000	0.631043
3138.000000	0.627460
3137.000000	0.623872
3136.000000	0.620291
3135.000000	0.616740
3134.000000	0.613226
3133.000000	0.609736
3132.000000	0.606265
3131.000000	0.602822
3130.000000	0.599402
3129.000000	0.595985
3128.000000	0.592566
3127.000000	0.589167
3126.000000	0.585807
3125.000000	0.582487
3124.000000	0.579205
3123.000000	0.575972
3122.000000	0.572785
3121.000000	0.569620
3120.000000	0.566453
3119.000000	0.563284
3118.000000	0.560120
3117.000000	0.556958
3116.000000	0.553795
3115.000000	0.550637
3114.000000	0.547492
3113.000000	0.544376
3112.000000	0.541312
3111.000000	0.538323
3110.000000	0.535398
3109.000000	0.532497
3108.000000	0.529588
3107.000000	0.526679
3106.000000	0.523798
3105.000000	0.520963
3104.000000	0.518177
3103.000000	0.515435
3102.000000	0.512726
3101.000000	0.510036
3100.000000	0.507357
3099.000000	0.504694
3098.000000	0.502052
3097.000000	0.499428
3096.000000	0.496825
3095.000000	0.494253
3094.000000	0.491722
3093.000000	0.489231
3092.000000	0.486772
3091.000000	0.484342
3090.000000	0.481936
3089.000000	0.479554
3088.000000	0.477198
3087.000000	0.474877
3086.000000	0.472588
3085.000000	0.470320
3084.000000	0.468063
3083.000000	0.465822
3082.000000	0.463603
3081.000000	0.461404
3080.000000	0.459212
3079.000000	0.457015
3078.000000	0.454809
3077.000000	0.452593
3076.000000	0.450378
3075.000000	0.448178
3074.000000	0.446002
3073.000000	0.443846
3072.000000	0.441705
3071.000000	0.439574
3070.000000	0.437451
3069.000000	0.435324
3068.000000	0.433173
3067.000000	0.430975
3066.000000	0.428717
3065.000000	0.426398
3064.000000	0.424035
3063.000000	0.421643
3062.000000	0.419235
3061.000000	0.416811
3060.000000	0.414374
3059.000000	0.411928
3058.000000	0.409473
3057.000000	0.407004
3056.000000	0.404516
3055.000000	0.402017
3054.000000	0.399521
3053.000000	0.397043
3052.000000	0.394587
3051.000000	0.392148
3050.000000	0.389713
3049.000000	0.387276
3048.000000	0.384843
3047.000000	0.382429
3046.000000	0.380044
3045.000000	0.377688
3044.000000	0.375357
3043.000000	0.373045
3042.000000	0.370753
3041.000000	0.368482
3040.000000	0.366235
3039.000000	0.364013
3038.000000	0.361825
3037.000000	0.359679
3036.000000	0.357579
3035.000000	0.355519
3034.000000	0.353487
3033.000000	0.351471
3032.000000	0.349463
3031.000000	0.347465
3030.000000	0.345486
3029.000000	0.343542
3028.000000	0.341636
3027.000000	0.339773
3026.000000	0.337955
3025.000000	0.336182
3024.000000	0.334453
3023.000000	0.332763
3022.000000	0.331118
3021.000000	0.329529
3020.000000	0.328004
3019.000000	0.326542
3018.000000	0.325145
3017.000000	0.323815
3016.000000	0.322550
3015.000000	0.321342
3014.000000	0.320184
3013.000000	0.319072
3012.000000	0.318000
3011.000000	0.316967
3010.000000	0.315980
3009.000000	0.315049
3008.000000	0.314184
3007.000000	0.313390
3006.000000	0.312667
3005.000000	0.312017
3004.000000	0.311439
3003.000000	0.310935
3002.000000	0.310516
3001.000000	0.310201
3000.000000	0.310003
2999.000000	0.309927
2998.000000	0.309978
2997.000000	0.310163
2996.000000	0.310488
2995.000000	0.310963
2994.000000	0.311596
2993.000000	0.312395
2992.000000	0.313361
2991.000000	0.314493
2990.000000	0.315793
2989.000000	0.317266
2988.000000	0.318904
2987.000000	0.320698
2986.000000	0.322639
2985.000000	0.324717
2984.000000	0.326925
2983.000000	0.329253
2982.000000	0.331699
2981.000000	0.334260
2980.000000	0.336929
2979.000000	0.339698
2978.000000	0.342565
2977.000000	0.345530
2976.000000	0.348585
2975.000000	0.351720
2974.000000	0.354926
2973.000000	0.358193
2972.000000	0.361510
2971.000000	0.364861
2970.000000	0.368232
2969.000000	0.371612
2968.000000	0.374991
2967.000000	0.378358
2966.000000	0.381714
2965.000000	0.385065
2964.000000	0.388418
2963.000000	0.391780
2962.000000	0.395150
2961.000000	0.398528
2960.000000	0.401917
2959.000000	0.405329
2958.000000	0.408772
2957.000000	0.412251
2956.000000	0.415769
2955.000000	0.419344
2954.000000	0.423000
2953.000000	0.426762
2952.000000	0.430644
2951.000000	0.434658
2950.000000	0.438815
2949.000000	0.443113
2948.000000	0.447540
2947.000000	0.452063
2946.000000	0.456638
2945.000000	0.461216
2944.000000	0.465750
2943.000000	0.470197
2942.000000	0.474520
2941.000000	0.478682
2940.000000	0.482653
2939.000000	0.486416
2938.000000	0.489953
2937.000000	0.493249
2936.000000	0.496292
2935.000000	0.499076
2934.000000	0.501591
2933.000000	0.503828
2932.000000	0.505786
2931.000000	0.507471
2930.000000	0.508883
2929.000000	0.510016
2928.000000	0.510865
2927.000000	0.511434
2926.000000	0.511721
2925.000000	0.511719
2924.000000	0.511418
2923.000000	0.510797
2922.000000	0.509802
2921.000000	0.508334
2920.000000	0.506245
2919.000000	0.503343
2918.000000	0.499429
2917.000000	0.494397
2916.000000	0.488326
2915.000000	0.481505
2914.000000	0.474350
2913.000000	0.467281
2912.000000	0.460628
2911.000000	0.454580
2910.000000	0.449192
2909.000000	0.444423
2908.000000	0.440190
2907.000000	0.436400
2906.000000	0.432968
2905.000000	0.429823
2904.000000	0.426903
2903.000000	0.424164
2902.000000	0.421567
2901.000000	0.419078
2900.000000	0.416664
2899.000000	0.414292
2898.000000	0.411941
2897.000000	0.409601
2896.000000	0.407271
2895.000000	0.404949
2894.000000	0.402633
2893.000000	0.400311
2892.000000	0.397969
2891.000000	0.395595
2890.000000	0.393178
2889.000000	0.390714
2888.000000	0.388202
2887.000000	0.385643
2886.000000	0.383044
2885.000000	0.380408
2884.000000	0.377736
2883.000000	0.375027
2882.000000	0.372281
2881.000000	0.369501
2880.000000	0.366692
2879.000000	0.363853
2878.000000	0.360984
2877.000000	0.358085
2876.000000	0.355149
2875.000000	0.352166
2874.000000	0.349131
2873.000000	0.346037
2872.000000	0.342883
2871.000000	0.339672
2870.000000	0.336432
2869.000000	0.333211
2868.000000	0.330064
2867.000000	0.327050
2866.000000	0.324232
2865.000000	0.321675
2864.000000	0.319429
2863.000000	0.317527
2862.000000	0.315989
2861.000000	0.314828
2860.000000	0.314035
2859.000000	0.313582
2858.000000	0.313430
2857.000000	0.313531
2856.000000	0.313826
2855.000000	0.314228
2854.000000	0.314594
2853.000000	0.314670
2852.000000	0.314046
2851.000000	0.312226
2850.000000	0.308813
2849.000000	0.303713
2848.000000	0.297218
2847.000000	0.289898
2846.000000	0.282380
2845.000000	0.275152
2844.000000	0.268475
2843.000000	0.262412
2842.000000	0.256921
2841.000000	0.251923
2840.000000	0.247329
2839.000000	0.243057
2838.000000	0.239043
2837.000000	0.235242
2836.000000	0.231617
2835.000000	0.228140
2834.000000	0.224801
2833.000000	0.221605
2832.000000	0.218545
2831.000000	0.215605
2830.000000	0.212775
2829.000000	0.210054
2828.000000	0.207437
2827.000000	0.204909
2826.000000	0.202468
2825.000000	0.200121
2824.000000	0.197864
2823.000000	0.195687
2822.000000	0.193582
2821.000000	0.191551
2820.000000	0.189586
2819.000000	0.187675
2818.000000	0.185817
2817.000000	0.184017
2816.000000	0.182275
2815.000000	0.180581
2814.000000	0.178931
2813.000000	0.177332
2812.000000	0.175779
2811.000000	0.174262
2810.000000	0.172782
2809.000000	0.171346
2808.000000	0.169950
2807.000000	0.168583
2806.000000	0.167242
2805.000000	0.165937
2804.000000	0.164664
2803.000000	0.163414
2802.000000	0.162186
2801.000000	0.160989
2800.000000	0.159822
2799.000000	0.158678
2798.000000	0.157557
2797.000000	0.156469
2796.000000	0.155412
2795.000000	0.154375
2794.000000	0.153357
2793.000000	0.152368
2792.000000	0.151406
2791.000000	0.150467
2790.000000	0.149552
2789.000000	0.148673
2788.000000	0.147824
2787.000000	0.146991
2786.000000	0.146174
2785.000000	0.145383
2784.000000	0.144621
2783.000000	0.143880
2782.000000	0.143158
2781.000000	0.142466
2780.000000	0.141803
2779.000000	0.141158
2778.000000	0.140529
2777.000000	0.139927
2776.000000	0.139356
2775.000000	0.138815
2774.000000	0.138305
2773.000000	0.137830
2772.000000	0.137371
2771.000000	0.136896
2770.000000	0.136384
2769.000000	0.135831
2768.000000	0.135231
2767.000000	0.134580
2766.000000	0.133894
2765.000000	0.133205
2764.000000	0.132530
2763.000000	0.131869
2762.000000	0.131227
2761.000000	0.130615
2760.000000	0.130030
2759.000000	0.129458
2758.000000	0.128900
2757.000000	0.128369
2756.000000	0.127865
2755.000000	0.127376
2754.000000	0.126900
2753.000000	0.126439
2752.000000	0.125983
2751.000000	0.125519
2750.000000	0.125049
2749.000000	0.124594
2748.000000	0.124159
2747.000000	0.123735
2746.000000	0.123316
2745.000000	0.122907
2744.000000	0.122499
2743.000000	0.122080
2742.000000	0.121650
2741.000000	0.121222
2740.000000	0.120798
2739.000000	0.120369
2738.000000	0.119938
2737.000000	0.119516
2736.000000	0.119099
2735.000000	0.118670
2734.000000	0.118224
2733.000000	0.117774
2732.000000	0.117324
2731.000000	0.116867
2730.000000	0.116405
2729.000000	0.115946
2728.000000	0.115488
2727.000000	0.115016
2726.000000	0.114528
2725.000000	0.114034
2724.000000	0.113535
2723.000000	0.113025
2722.000000	0.112510
2721.000000	0.112000
2720.000000	0.111488
2719.000000	0.110958
2718.000000	0.110410
2717.000000	0.109858
2716.000000	0.109301
2715.000000	0.108728
2714.000000	0.108145
2713.000000	0.107568
2712.000000	0.106996
2711.000000	0.106416
2710.000000	0.105823
2709.000000	0.105229
2708.000000	0.104632
2707.000000	0.104026
2706.000000	0.103417
2705.000000	0.102822
2704.000000	0.102241
2703.000000	0.101663
2702.000000	0.101087
2701.000000	0.100524
2700.000000	0.099970
2699.000000	0.099411
2698.000000	0.098850
2697.000000	0.098301
2696.000000	0.097768
2695.000000	0.097238
2694.000000	0.096711
2693.000000	0.096193
2692.000000	0.095682
2691.000000	0.095165
2690.000000	0.094645
2689.000000	0.094136
2688.000000	0.093641
2687.000000	0.093147
2686.000000	0.092654
2685.000000	0.092170
2684.000000	0.091690
2683.000000	0.091201
2682.000000	0.090706
2681.000000	0.090222
2680.000000	0.089751
2679.000000	0.089279
2678.000000	0.088805
2677.000000	0.088337
2676.000000	0.087870
2675.000000	0.087392
2674.000000	0.086906
2673.000000	0.086428
2672.000000	0.085961
2671.000000	0.085491
2670.000000	0.085020
2669.000000	0.084555
2668.000000	0.084093
2667.000000	0.083618
2666.000000	0.083135
2665.000000	0.082662
2664.000000	0.082201
2663.000000	0.081741
2662.000000	0.081281
2661.000000	0.080831
2660.000000	0.080386
2659.000000	0.079931
2658.000000	0.079465
2657.000000	0.079002
2656.000000	0.078542
2655.000000	0.078079
2654.000000	0.077621
2653.000000	0.077179
2652.000000	0.076744
2651.000000	0.076295
2650.000000	0.075827
2649.000000	0.075355
2648.000000	0.074881
2647.000000	0.074398
2646.000000	0.073913
2645.000000	0.073442
2644.000000	0.072983
2643.000000	0.072517
2642.000000	0.072037
2641.000000	0.071550
2640.000000	0.071054
2639.000000	0.070541
2638.000000	0.070023
2637.000000	0.069523
2636.000000	0.069039
2635.000000	0.068552
2634.000000	0.068055
2633.000000	0.067557
2632.000000	0.067057
2631.000000	0.066544
2630.000000	0.066025
2629.000000	0.065522
2628.000000	0.065041
2627.000000	0.064570
2626.000000	0.064106
2625.000000	0.063655
2624.000000	0.063208
2623.000000	0.062749
2622.000000	0.062280
2621.000000	0.061822
2620.000000	0.061383
2619.000000	0.060952
2618.000000	0.060531
2617.000000	0.060132
2616.000000	0.059743
2615.000000	0.059344
2614.000000	0.058934
2613.000000	0.058530
2612.000000	0.058135
2611.000000	0.057743
2610.000000	0.057361
2609.000000	0.057002
2608.000000	0.056661
2607.000000	0.056316
2606.000000	0.055962
2605.000000	0.055610
2604.000000	0.055264
2603.000000	0.054913
2602.000000	0.054568
2601.000000	0.054244
2600.000000	0.053937
2599.000000	0.053626
2598.000000	0.053307
2597.000000	0.052994
2596.000000	0.052685
2595.000000	0.052370
2594.000000	0.052055
2593.000000	0.051758
2592.000000	0.051475
2591.000000	0.051187
2590.000000	0.050894
2589.000000	0.050605
2588.000000	0.050320
2587.000000	0.050025
2586.000000	0.049726
2585.000000	0.049439
2584.000000	0.049163
2583.000000	0.048877
2582.000000	0.048583
2581.000000	0.048296
2580.000000	0.048018
2579.000000	0.047734
2578.000000	0.047445
2577.000000	0.047165
2576.000000	0.046893
2575.000000	0.046613
2574.000000	0.046325
2573.000000	0.046043
2572.000000	0.045762
2571.000000	0.045471
2570.000000	0.045176
2569.000000	0.044895
2568.000000	0.044625
2567.000000	0.044348
2566.000000	0.044061
2565.000000	0.043778
2564.000000	0.043498
2563.000000	0.043207
2562.000000	0.042911
2561.000000	0.042629
2560.000000	0.042358
2559.000000	0.042083
2558.000000	0.041804
2557.000000	0.041532
2556.000000	0.041262
2555.000000	0.040976
2554.000000	0.040682
2553.000000	0.040401
2552.000000	0.040136
2551.000000	0.039871
2550.000000	0.039604
2549.000000	0.039349
2548.000000	0.039096
2547.000000	0.038827
2546.000000	0.038544
2545.000000	0.038268
2544.000000	0.038001
2543.000000	0.037733
2542.000000	0.037466
2541.000000	0.037211
2540.000000	0.036961
2539.000000	0.036696
2538.000000	0.036415
2537.000000	0.036137
2536.000000	0.035864
2535.000000	0.035583
2534.000000	0.035302
2533.000000	0.035041
2532.000000	0.034794
2531.000000	0.034539
2530.000000	0.034270
2529.000000	0.034004
2528.000000	0.033743
2527.000000	0.033475
2526.000000	0.033209
2525.000000	0.032964
2524.000000	0.032736
2523.000000	0.032505
2522.000000	0.032267
2521.000000	0.032036
2520.000000	0.031811
2519.000000	0.031577
2518.000000	0.031342
2517.000000	0.031127
2516.000000	0.030930
2515.000000	0.030731
2514.000000	0.030525
2513.000000	0.030326
2512.000000	0.030130
2511.000000	0.029923
2510.000000	0.029710
2509.000000	0.029516
2508.000000	0.029339
2507.000000	0.029161
2506.000000	0.028980
2505.000000	0.028804
2504.000000	0.028623
2503.000000	0.028417
2502.000000	0.028193
2501.000000	0.027973
2500.000000	0.027755
2499.000000	0.027520
2498.000000	0.027272
2497.000000	0.027026
2496.000000	0.026781
2495.000000	0.026517
2494.000000	0.026237
2493.000000	0.025964
2492.000000	0.025703
2491.000000	0.025443
2490.000000	0.025189
2489.000000	0.024955
2488.000000	0.024730
2487.000000	0.024492
2486.000000	0.024242
2485.000000	0.023999
2484.000000	0.023760
2483.000000	0.023513
2482.000000	0.023264
2481.000000	0.023034
2480.000000	0.022819
2479.000000	0.022594
2478.000000	0.022354
2477.000000	0.022117
2476.000000	0.021882
2475.000000	0.021636
2474.000000	0.021385
2473.000000	0.021151
2472.000000	0.020933
2471.000000	0.020712
2470.000000	0.020485
2469.000000	0.020269
2468.000000	0.020056
2467.000000	0.019828
2466.000000	0.019591
2465.000000	0.019368
2464.000000	0.019158
2463.000000	0.018945
2462.000000	0.018726
2461.000000	0.018517
2460.000000	0.018314
2459.000000	0.018095
2458.000000	0.017867
2457.000000	0.017649
2456.000000	0.017440
2455.000000	0.017224
2454.000000	0.017005
2453.000000	0.016798
2452.000000	0.016597
2451.000000	0.016382
2450.000000	0.016156
2449.000000	0.015941
2448.000000	0.015735
2447.000000	0.015519
2446.000000	0.015296
2445.000000	0.015086
2444.000000	0.014885
2443.000000	0.014671
2442.000000	0.014447
2441.000000	0.014232
2440.000000	0.014026
2439.000000	0.013811
2438.000000	0.013589
2437.000000	0.013378
2436.000000	0.013170
2435.000000	0.012946
2434.000000	0.012709
2433.000000	0.012484
2432.000000	0.012271
2431.000000	0.012053
2430.000000	0.011830
2429.000000	0.011622
2428.000000	0.011422
2427.000000	0.011206
2426.000000	0.010976
2425.000000	0.010755
2424.000000	0.010544
2423.000000	0.010328
2422.000000	0.010112
2421.000000	0.009913
2420.000000	0.009727
2419.000000	0.009530
2418.000000	0.009326
2417.000000	0.009134
2416.000000	0.008953
2415.000000	0.008766
2414.000000	0.008580
2413.000000	0.008415
2412.000000	0.008266
2411.000000	0.008106
2410.000000	0.007937
2409.000000	0.007781
2408.000000	0.007637
2407.000000	0.007488
2406.000000	0.007337
2405.000000	0.007202
2404.000000	0.007075
2403.000000	0.006932
2402.000000	0.006776
2401.000000	0.006627
2400.000000	0.006482
2399.000000	0.006323
2398.000000	0.006155
2397.000000	0.006000
2396.000000	0.005852
2395.000000	0.005686
2394.000000	0.005507
2393.000000	0.005339
2392.000000	0.005185
2391.000000	0.005027
2390.000000	0.004870
2389.000000	0.004732
2388.000000	0.004603
2387.000000	0.004454
2386.000000	0.004284
2385.000000	0.004115
2384.000000	0.003947
2383.000000	0.003764
2382.000000	0.003579
2381.000000	0.003421
2380.000000	0.003290
2379.000000	0.003159
2378.000000	0.003027
2377.000000	0.002916
2376.000000	0.002820
2375.000000	0.002716
2374.000000	0.002610
2373.000000	0.002530
2372.000000	0.002468
2371.000000	0.002389
2370.000000	0.002292
2369.000000	0.002203
2368.000000	0.002116
2367.000000	0.001996
2366.000000	0.001859
2365.000000	0.001754
2364.000000	0.001673
2363.000000	0.001584
2362.000000	0.001497
2361.000000	0.001434
2360.000000	0.001380
2359.000000	0.001301
2358.000000	0.001207
2357.000000	0.001150
2356.000000	0.001110
2355.000000	0.001046
2354.000000	0.000949
2353.000000	0.000820
2352.000000	0.000637
2351.000000	0.000383
2350.000000	0.000183
2349.000000	0.000174
2348.000000	0.000353
2347.000000	0.000574
2346.000000	0.000664
2345.000000	0.000629
2344.000000	0.000548
2343.000000	0.000498
2342.000000	0.000487
2341.000000	0.000488
2340.000000	0.000497
2339.000000	0.000486
2338.000000	0.000476
2337.000000	0.000484
2336.000000	0.000510
2335.000000	0.000513
2334.000000	0.000504
2333.000000	0.000493
2332.000000	0.000494
2331.000000	0.000459
2330.000000	0.000432
2329.000000	0.000446
2328.000000	0.000511
2327.000000	0.000591
2326.000000	0.000649
2325.000000	0.000706
2324.000000	0.000733
2323.000000	0.000723
2322.000000	0.000704
2321.000000	0.000722
2320.000000	0.000788
2319.000000	0.000851
2318.000000	0.000918
2317.000000	0.000989
2316.000000	0.001064
2315.000000	0.001093
2314.000000	0.001095
2313.000000	0.001102
2312.000000	0.001142
2311.000000	0.001188
2310.000000	0.001242
2309.000000	0.001312
2308.000000	0.001391
2307.000000	0.001451
2306.000000	0.001501
2305.000000	0.001570
2304.000000	0.001663
2303.000000	0.001748
2302.000000	0.001825
2301.000000	0.001908
2300.000000	0.001993
2299.000000	0.002048
2298.000000	0.002084
2297.000000	0.002129
2296.000000	0.002191
2295.000000	0.002244
2294.000000	0.002291
2293.000000	0.002353
2292.000000	0.002422
2291.000000	0.002468
2290.000000	0.002488
2289.000000	0.002512
2288.000000	0.002542
2287.000000	0.002565
2286.000000	0.002586
2285.000000	0.002630
2284.000000	0.002686
2283.000000	0.002725
2282.000000	0.002744
2281.000000	0.002768
2280.000000	0.002797
2279.000000	0.002812
2278.000000	0.002822
2277.000000	0.002857
2276.000000	0.002917
2275.000000	0.002971
2274.000000	0.003014
2273.000000	0.003064
2272.000000	0.003118
2271.000000	0.003157
2270.000000	0.003189
2269.000000	0.003246
2268.000000	0.003323
2267.000000	0.003393
2266.000000	0.003454
2265.000000	0.003529
2264.000000	0.003613
2263.000000	0.003678
2262.000000	0.003728
2261.000000	0.003798
2260.000000	0.003888
2259.000000	0.003974
2258.000000	0.004050
2257.000000	0.004138
2256.000000	0.004233
2255.000000	0.004308
2254.000000	0.004370
2253.000000	0.004447
2252.000000	0.004539
2251.000000	0.004624
2250.000000	0.004706
2249.000000	0.004809
2248.000000	0.004922
2247.000000	0.005014
2246.000000	0.005087
2245.000000	0.005174
2244.000000	0.005277
2243.000000	0.005370
2242.000000	0.005456
2241.000000	0.005560
2240.000000	0.005678
2239.000000	0.005780
2238.000000	0.005866
2237.000000	0.005961
2236.000000	0.006066
2235.000000	0.006159
2234.000000	0.006246
2233.000000	0.006353
2232.000000	0.006471
2231.000000	0.006564
2230.000000	0.006632
2229.000000	0.006705
2228.000000	0.006782
2227.000000	0.006838
2226.000000	0.006878
2225.000000	0.006932
2224.000000	0.007001
2223.000000	0.007058
2222.000000	0.007105
2221.000000	0.007168
2220.000000	0.007246
2219.000000	0.007311
2218.000000	0.007370
2217.000000	0.007450
2216.000000	0.007548
2215.000000	0.007631
2214.000000	0.007704
2213.000000	0.007796
2212.000000	0.007906
2211.000000	0.008006
2210.000000	0.008097
2209.000000	0.008205
2208.000000	0.008327
2207.000000	0.008433
2206.000000	0.008524
2205.000000	0.008628
2204.000000	0.008745
2203.000000	0.008851
2202.000000	0.008952
2201.000000	0.009080
2200.000000	0.009227
2199.000000	0.009359
2198.000000	0.009473
2197.000000	0.009599
2196.000000	0.009735
2195.000000	0.009856
2194.000000	0.009971
2193.000000	0.010115
2192.000000	0.010284
2191.000000	0.010445
2190.000000	0.010591
2189.000000	0.010744
2188.000000	0.010901
2187.000000	0.011037
2186.000000	0.011167
2185.000000	0.011329
2184.000000	0.011523
2183.000000	0.011712
2182.000000	0.011889
2181.000000	0.012075
2180.000000	0.012264
2179.000000	0.012426
2178.000000	0.012569
2177.000000	0.012735
2176.000000	0.012930
2175.000000	0.013122
2174.000000	0.013306
2173.000000	0.013502
2172.000000	0.013698
2171.000000	0.013862
2170.000000	0.014001
2169.000000	0.014151
2168.000000	0.014317
2167.000000	0.014473
2166.000000	0.014622
2165.000000	0.014794
2164.000000	0.014972
2163.000000	0.015115
2162.000000	0.015218
2161.000000	0.015321
2160.000000	0.015433
2159.000000	0.015533
2158.000000	0.015627
2157.000000	0.015743
2156.000000	0.015871
2155.000000	0.015970
2154.000000	0.016037
2153.000000	0.016104
2152.000000	0.016173
2151.000000	0.016223
2150.000000	0.016265
2149.000000	0.016334
2148.000000	0.016423
2147.000000	0.016491
2146.000000	0.016532
2145.000000	0.016577
2144.000000	0.016626
2143.000000	0.016654
2142.000000	0.016669
2141.000000	0.016714
2140.000000	0.016785
2139.000000	0.016842
2138.000000	0.016879
2137.000000	0.016918
2136.000000	0.016956
2135.000000	0.016963
2134.000000	0.016953
2133.000000	0.016966
2132.000000	0.017000
2131.000000	0.017019
2130.000000	0.017022
2129.000000	0.017039
2128.000000	0.017067
2127.000000	0.017069
2126.000000	0.017049
2125.000000	0.017049
2124.000000	0.017071
2123.000000	0.017081
2122.000000	0.017077
2121.000000	0.017086
2120.000000	0.017101
2119.000000	0.017088
2118.000000	0.017058
2117.000000	0.017050
2116.000000	0.017064
2115.000000	0.017061
2114.000000	0.017037
2113.000000	0.017029
2112.000000	0.017033
2111.000000	0.017012
2110.000000	0.016966
2109.000000	0.016937
2108.000000	0.016929
2107.000000	0.016911
2106.000000	0.016883
2105.000000	0.016877
2104.000000	0.016885
2103.000000	0.016866
2102.000000	0.016823
2101.000000	0.016794
2100.000000	0.016781
2099.000000	0.016753
2098.000000	0.016713
2097.000000	0.016696
2096.000000	0.016697
2095.000000	0.016677
2094.000000	0.016637
2093.000000	0.016615
2092.000000	0.016612
2091.000000	0.016592
2090.000000	0.016554
2089.000000	0.016537
2088.000000	0.016535
2087.000000	0.016511
2086.000000	0.016467
2085.000000	0.016439
2084.000000	0.016428
2083.000000	0.016401
2082.000000	0.016365
2081.000000	0.016360
2080.000000	0.016380
2079.000000	0.016383
2078.000000	0.016367
2077.000000	0.016364
2076.000000	0.016371
2075.000000	0.016353
2074.000000	0.016317
2073.000000	0.016307
2072.000000	0.016323
2071.000000	0.016322
2070.000000	0.016310
2069.000000	0.016332
2068.000000	0.016387
2067.000000	0.016417
2066.000000	0.016407
2065.000000	0.016390
2064.000000	0.016376
2063.000000	0.016339
2062.000000	0.016284
2061.000000	0.016247
2060.000000	0.016225
2059.000000	0.016178
2058.000000	0.016111
2057.000000	0.016069
2056.000000	0.016051
2055.000000	0.016017
2054.000000	0.015965
2053.000000	0.015926
2052.000000	0.015894
2051.000000	0.015823
2050.000000	0.015722
2049.000000	0.015641
2048.000000	0.015585
2047.000000	0.015515
2046.000000	0.015436
2045.000000	0.015385
2044.000000	0.015347
2043.000000	0.015261
2042.000000	0.015117
2041.000000	0.014961
2040.000000	0.014808
2039.000000	0.014636
2038.000000	0.014455
2037.000000	0.014307
2036.000000	0.014181
2035.000000	0.014023
2034.000000	0.013830
2033.000000	0.013642
2032.000000	0.013465
2031.000000	0.013266
2030.000000	0.013055
2029.000000	0.012871
2028.000000	0.012705
2027.000000	0.012504
2026.000000	0.012272
2025.000000	0.012060
2024.000000	0.011869
2023.000000	0.011662
2022.000000	0.011461
2021.000000	0.011331
2020.000000	0.011261
2019.000000	0.011158
2018.000000	0.010973
2017.000000	0.010737
2016.000000	0.010478
2015.000000	0.010197
2014.000000	0.009927
2013.000000	0.009725
2012.000000	0.009579
2011.000000	0.009429
2010.000000	0.009263
2009.000000	0.009113
2008.000000	0.008977
2007.000000	0.008814
2006.000000	0.008635
2005.000000	0.008498
2004.000000	0.008404
2003.000000	0.008307
2002.000000	0.008199
2001.000000	0.008109
2000.000000	0.008026
1999.000000	0.007899
1998.000000	0.007750
1997.000000	0.007676
1996.000000	0.007721
1995.000000	0.007827
1994.000000	0.007913
1993.000000	0.007941
1992.000000	0.007889
1991.000000	0.007747
1990.000000	0.007557
1989.000000	0.007386
1988.000000	0.007247
1987.000000	0.007109
1986.000000	0.006987
1985.000000	0.006924
1984.000000	0.006902
1983.000000	0.006862
1982.000000	0.006800
1981.000000	0.006769
1980.000000	0.006772
1979.000000	0.006756
1978.000000	0.006719
1977.000000	0.006708
1976.000000	0.006720
1975.000000	0.006700
1974.000000	0.006648
1973.000000	0.006631
1972.000000	0.006688
1971.000000	0.006801
1970.000000	0.006955
1969.000000	0.007116
1968.000000	0.007188
1967.000000	0.007098
1966.000000	0.006915
1965.000000	0.006774
1964.000000	0.006714
1963.000000	0.006673
1962.000000	0.006632
1961.000000	0.006633
1960.000000	0.006675
1959.000000	0.006700
1958.000000	0.006703
1957.000000	0.006723
1956.000000	0.006746
1955.000000	0.006718
1954.000000	0.006661
1953.000000	0.006648
1952.000000	0.006683
1951.000000	0.006717
1950.000000	0.006756
1949.000000	0.006840
1948.000000	0.006953
1947.000000	0.007067
1946.000000	0.007232
1945.000000	0.007473
1944.000000	0.007653
1943.000000	0.007603
1942.000000	0.007362
1941.000000	0.007103
1940.000000	0.006902
1939.000000	0.006728
1938.000000	0.006591
1937.000000	0.006555
1936.000000	0.006609
1935.000000	0.006652
1934.000000	0.006656
1933.000000	0.006663
1932.000000	0.006667
1931.000000	0.006623
1930.000000	0.006543
1929.000000	0.006511
1928.000000	0.006581
1927.000000	0.006765
1926.000000	0.007075
1925.000000	0.007434
1924.000000	0.007646
1923.000000	0.007601
1922.000000	0.007435
1921.000000	0.007379
1920.000000	0.007473
1919.000000	0.007568
1918.000000	0.007604
1917.000000	0.007638
1916.000000	0.007661
1915.000000	0.007638
1914.000000	0.007647
1913.000000	0.007798
1912.000000	0.008039
1911.000000	0.008193
1910.000000	0.008180
1909.000000	0.008089
1908.000000	0.007983
1907.000000	0.007843
1906.000000	0.007683
1905.000000	0.007555
1904.000000	0.007459
1903.000000	0.007347
1902.000000	0.007227
1901.000000	0.007183
1900.000000	0.007246
1899.000000	0.007382
1898.000000	0.007568
1897.000000	0.007752
1896.000000	0.007820
1895.000000	0.007736
1894.000000	0.007666
1893.000000	0.007816
1892.000000	0.008147
1891.000000	0.008392
1890.000000	0.008413
1889.000000	0.008341
1888.000000	0.008288
1887.000000	0.008224
1886.000000	0.008142
1885.000000	0.008102
1884.000000	0.008122
1883.000000	0.008163
1882.000000	0.008227
1881.000000	0.008371
1880.000000	0.008573
1879.000000	0.008732
1878.000000	0.008838
1877.000000	0.008967
1876.000000	0.009124
1875.000000	0.009263
1874.000000	0.009462
1873.000000	0.009927
1872.000000	0.010775
1871.000000	0.011812
1870.000000	0.012615
1869.000000	0.012920
1868.000000	0.012750
1867.000000	0.012264
1866.000000	0.011720
1865.000000	0.011379
1864.000000	0.011296
1863.000000	0.011350
1862.000000	0.011469
1861.000000	0.011664
1860.000000	0.011886
1859.000000	0.012035
1858.000000	0.012124
1857.000000	0.012264
1856.000000	0.012472
1855.000000	0.012671
1854.000000	0.012850
1853.000000	0.013111
1852.000000	0.013505
1851.000000	0.013966
1850.000000	0.014444
1849.000000	0.014928
1848.000000	0.015392
1847.000000	0.015833
1846.000000	0.016279
1845.000000	0.016770
1844.000000	0.017343
1843.000000	0.017853
1842.000000	0.018153
1841.000000	0.018392
1840.000000	0.018734
1839.000000	0.019144
1838.000000	0.019543
1837.000000	0.019946
1836.000000	0.020390
1835.000000	0.020914
1834.000000	0.021685
1833.000000	0.022910
1832.000000	0.024388
1831.000000	0.025489
1830.000000	0.026009
1829.000000	0.026347
1828.000000	0.026796
1827.000000	0.027316
1826.000000	0.027804
1825.000000	0.028304
1824.000000	0.028835
1823.000000	0.029283
1822.000000	0.029670
1821.000000	0.030190
1820.000000	0.030902
1819.000000	0.031693
1818.000000	0.032508
1817.000000	0.033407
1816.000000	0.034420
1815.000000	0.035512
1814.000000	0.036723
1813.000000	0.038058
1812.000000	0.039291
1811.000000	0.040212
1810.000000	0.040934
1809.000000	0.041719
1808.000000	0.042629
1807.000000	0.043549
1806.000000	0.044513
1805.000000	0.045726
1804.000000	0.047300
1803.000000	0.049073
1802.000000	0.050794
1801.000000	0.052332
1800.000000	0.053653
1799.000000	0.054812
1798.000000	0.055972
1797.000000	0.057279
1796.000000	0.058754
1795.000000	0.060394
1794.000000	0.062222
1793.000000	0.064208
1792.000000	0.066226
1791.000000	0.068013
1790.000000	0.069451
1789.000000	0.070791
1788.000000	0.072343
1787.000000	0.074241
1786.000000	0.076568
1785.000000	0.079352
1784.000000	0.082415
1783.000000	0.085415
1782.000000	0.088215
1781.000000	0.091016
1780.000000	0.094018
1779.000000	0.097214
1778.000000	0.100554
1777.000000	0.104090
1776.000000	0.107929
1775.000000	0.112239
1774.000000	0.117095
1773.000000	0.122395
1772.000000	0.127907
1771.000000	0.133149
1770.000000	0.138105
1769.000000	0.143479
1768.000000	0.149697
1767.000000	0.156353
1766.000000	0.162942
1765.000000	0.169647
1764.000000	0.176970
1763.000000	0.185075
1762.000000	0.193866
1761.000000	0.202964
1760.000000	0.211726
1759.000000	0.219942
1758.000000	0.228084
1757.000000	0.236670
1756.000000	0.245317
1755.000000	0.253157
1754.000000	0.260422
1753.000000	0.268386
1752.000000	0.277659
1751.000000	0.287341
1750.000000	0.296046
1749.000000	0.303256
1748.000000	0.309282
1747.000000	0.314538
1746.000000	0.319436
1745.000000	0.324257
1744.000000	0.328860
1743.000000	0.332902
1742.000000	0.336413
1741.000000	0.339670
1740.000000	0.342559
1739.000000	0.344523
1738.000000	0.345310
1737.000000	0.345680
1736.000000	0.346444
1735.000000	0.347366
1734.000000	0.348448
1733.000000	0.349565
1732.000000	0.349697
1731.000000	0.348411
1730.000000	0.346371
1729.000000	0.344510
1728.000000	0.343120
1727.000000	0.341956
1726.000000	0.340982
1725.000000	0.340331
1724.000000	0.339846
1723.000000	0.339211
1722.000000	0.338500
1721.000000	0.338243
1720.000000	0.338713
1719.000000	0.339358
1718.000000	0.339856
1717.000000	0.340491
1716.000000	0.340892
1715.000000	0.340526
1714.000000	0.339787
1713.000000	0.339375
1712.000000	0.339421
1711.000000	0.339717
1710.000000	0.340420
1709.000000	0.341923
1708.000000	0.344083
1707.000000	0.346226
1706.000000	0.348046
1705.000000	0.349684
1704.000000	0.350998
1703.000000	0.352482
1702.000000	0.355428
1701.000000	0.360533
1700.000000	0.367100
1699.000000	0.372685
1698.000000	0.376336
1697.000000	0.379783
1696.000000	0.384951
1695.000000	0.391596
1694.000000	0.397849
1693.000000	0.403213
1692.000000	0.408524
1691.000000	0.414329
1690.000000	0.420446
1689.000000	0.426404
1688.000000	0.431973
1687.000000	0.437976
1686.000000	0.445558
1685.000000	0.454737
1684.000000	0.465027
1683.000000	0.474408
1682.000000	0.481463
1681.000000	0.487467
1680.000000	0.493715
1679.000000	0.500242
1678.000000	0.507115
1677.000000	0.515183
1676.000000	0.525054
1675.000000	0.535955
1674.000000	0.546314
1673.000000	0.555620
1672.000000	0.564554
1671.000000	0.573626
1670.000000	0.583168
1669.000000	0.593443
1668.000000	0.603603
1667.000000	0.612456
1666.000000	0.620330
1665.000000	0.628598
1664.000000	0.637781
1663.000000	0.647149
1662.000000	0.655911
1661.000000	0.663957
1660.000000	0.671431
1659.000000	0.678064
1658.000000	0.683610
1657.000000	0.688413
1656.000000	0.693678
1655.000000	0.699815
1654.000000	0.706032
1653.000000	0.714469
1652.000000	0.724096
1651.000000	0.730535
1650.000000	0.734003
1649.000000	0.736883
1648.000000	0.739994
1647.000000	0.743070
1646.000000	0.746230
1645.000000	0.749621
1644.000000	0.752789
1643.000000	0.755275
1642.000000	0.757431
1641.000000	0.760117
1640.000000	0.763396
1639.000000	0.766565
1638.000000	0.769382
1637.000000	0.772060
1636.000000	0.774983
1635.000000	0.777946
1634.000000	0.780039
1633.000000	0.781343
1632.000000	0.782578
1631.000000	0.783880
1630.000000	0.785098
1629.000000	0.786295
1628.000000	0.787488
1627.000000	0.788315
1626.000000	0.788686
1625.000000	0.788968
1624.000000	0.789064
1623.000000	0.788372
1622.000000	0.786651
1621.000000	0.784330
1620.000000	0.781836
1619.000000	0.778997
1618.000000	0.775097
1617.000000	0.770082
1616.000000	0.764652
1615.000000	0.758691
1614.000000	0.751855
1613.000000	0.744596
1612.000000	0.737416
1611.000000	0.730169
1610.000000	0.722575
1609.000000	0.714840
1608.000000	0.707219
1607.000000	0.699490
1606.000000	0.691317
1605.000000	0.682742
1604.000000	0.673821
1603.000000	0.664301
1602.000000	0.654107
1601.000000	0.643670
1600.000000	0.633425
1599.000000	0.623305
1598.000000	0.613002
1597.000000	0.602383
1596.000000	0.591360
1595.000000	0.579717
1594.000000	0.567375
1593.000000	0.554563
1592.000000	0.541522
1591.000000	0.528233
1590.000000	0.514641
1589.000000	0.500975
1588.000000	0.487526
1587.000000	0.474380
1586.000000	0.461500
1585.000000	0.448971
1584.000000	0.436921
1583.000000	0.425328
1582.000000	0.414102
1581.000000	0.403317
1580.000000	0.393215
1579.000000	0.383904
1578.000000	0.374817
1577.000000	0.364866
1576.000000	0.354396
1575.000000	0.344962
1574.000000	0.337052
1573.000000	0.330287
1572.000000	0.324252
1571.000000	0.318101
1570.000000	0.311165
1569.000000	0.304115
1568.000000	0.297953
1567.000000	0.292770
1566.000000	0.287988
1565.000000	0.283029
1564.000000	0.277830
1563.000000	0.273105
1562.000000	0.269839
1561.000000	0.267385
1560.000000	0.265571
1559.000000	0.263586
1558.000000	0.262259
1557.000000	0.259755
1556.000000	0.256759
1555.000000	0.254292
1554.000000	0.252284
1553.000000	0.250931
1552.000000	0.249763
1551.000000	0.248537
1550.000000	0.247095
1549.000000	0.245546
1548.000000	0.244231
1547.000000	0.243634
1546.000000	0.243850
1545.000000	0.244348
1544.000000	0.244712
1543.000000	0.245197
1542.000000	0.245857
1541.000000	0.245436
1540.000000	0.244078
1539.000000	0.243602
1538.000000	0.244130
1537.000000	0.244936
1536.000000	0.246172
1535.000000	0.248056
1534.000000	0.250226
1533.000000	0.252351
1532.000000	0.254288
1531.000000	0.256154
1530.000000	0.258302
1529.000000	0.260820
1528.000000	0.263583
1527.000000	0.266573
1526.000000	0.269816
1525.000000	0.273111
1524.000000	0.276444
1523.000000	0.280199
1522.000000	0.284905
1521.000000	0.290709
1520.000000	0.296560
1519.000000	0.301378
1518.000000	0.304976
1517.000000	0.307368
1516.000000	0.308554
1515.000000	0.308585
1514.000000	0.307808
1513.000000	0.306625
1512.000000	0.305006
1511.000000	0.302983
1510.000000	0.300931
1509.000000	0.298881
1508.000000	0.294489
1507.000000	0.286245
1506.000000	0.277110
1505.000000	0.269488
1504.000000	0.262923
1503.000000	0.256643
1502.000000	0.250512
1501.000000	0.244661
1500.000000	0.239013
1499.000000	0.233360
1498.000000	0.227685
1497.000000	0.222354
1496.000000	0.217885
1495.000000	0.214466
1494.000000	0.212132
1493.000000	0.211134
1492.000000	0.211544
1491.000000	0.212736
1490.000000	0.214002
1489.000000	0.215208
1488.000000	0.216437
1487.000000	0.217944
1486.000000	0.220179
1485.000000	0.223452
1484.000000	0.227750
1483.000000	0.232909
1482.000000	0.238901
1481.000000	0.245682
1480.000000	0.253057
1479.000000	0.261076
1478.000000	0.270182
1477.000000	0.280551
1476.000000	0.291812
1475.000000	0.303823
1474.000000	0.317006
1473.000000	0.331567
1472.000000	0.346545
1471.000000	0.360240
1470.000000	0.372040
1469.000000	0.382576
1468.000000	0.392425
1467.000000	0.401726
1466.000000	0.410252
1465.000000	0.417566
1464.000000	0.423294
1463.000000	0.427478
1462.000000	0.430715
1461.000000	0.433655
1460.000000	0.436756
1459.000000	0.440258
1458.000000	0.444093
1457.000000	0.448385
1456.000000	0.452410
1455.000000	0.454763
1454.000000	0.455445
1453.000000	0.455342
1452.000000	0.455032
1451.000000	0.454695
1450.000000	0.454365
1449.000000	0.453893
1448.000000	0.452985
1447.000000	0.451653
1446.000000	0.450236
1445.000000	0.449011
1444.000000	0.448056
1443.000000	0.447445
1442.000000	0.447194
1441.000000	0.447106
1440.000000	0.447058
1439.000000	0.447496
1438.000000	0.449012
1437.000000	0.451529
1436.000000	0.454293
1435.000000	0.456512
1434.000000	0.458170
1433.000000	0.459830
1432.000000	0.461788
1431.000000	0.463806
1430.000000	0.465569
1429.000000	0.466985
1428.000000	0.468067
1427.000000	0.468931
1426.000000	0.469705
1425.000000	0.470159
1424.000000	0.469764
1423.000000	0.468396
1422.000000	0.466691
1421.000000	0.465410
1420.000000	0.464324
1419.000000	0.462631
1418.000000	0.460143
1417.000000	0.457026
1416.000000	0.453482
1415.000000	0.449907
1414.000000	0.446671
1413.000000	0.443826
1412.000000	0.441187
1411.000000	0.438661
1410.000000	0.436337
1409.000000	0.434285
1408.000000	0.432494
1407.000000	0.430956
1406.000000	0.429557
1405.000000	0.428101
1404.000000	0.426553
1403.000000	0.425136
1402.000000	0.424173
1401.000000	0.423786
1400.000000	0.423790
1399.000000	0.423975
1398.000000	0.424308
1397.000000	0.424825
1396.000000	0.425587
1395.000000	0.426734
1394.000000	0.428383
1393.000000	0.430418
1392.000000	0.432683
1391.000000	0.435330
1390.000000	0.438742
1389.000000	0.443121
1388.000000	0.448222
1387.000000	0.453504
1386.000000	0.458455
1385.000000	0.462847
1384.000000	0.466823
1383.000000	0.470651
1382.000000	0.474427
1381.000000	0.478028
1380.000000	0.481297
1379.000000	0.484182
1378.000000	0.486698
1377.000000	0.488816
1376.000000	0.490389
1375.000000	0.491227
1374.000000	0.491298
1373.000000	0.490727
1372.000000	0.489617
1371.000000	0.488032
1370.000000	0.485963
1369.000000	0.483274
1368.000000	0.479901
1367.000000	0.476081
1366.000000	0.472223
1365.000000	0.468512
1364.000000	0.464706
1363.000000	0.460497
1362.000000	0.455939
1361.000000	0.451293
1360.000000	0.446774
1359.000000	0.442576
1358.000000	0.438872
1357.000000	0.435670
1356.000000	0.432854
1355.000000	0.430386
1354.000000	0.428377
1353.000000	0.426919
1352.000000	0.426011
1351.000000	0.425680
1350.000000	0.425989
1349.000000	0.426958
1348.000000	0.428580
1347.000000	0.430885
1346.000000	0.433915
1345.000000	0.437603
1344.000000	0.441827
1343.000000	0.446572
1342.000000	0.451890
1341.000000	0.457654
1340.000000	0.463536
1339.000000	0.469280
1338.000000	0.474859
1337.000000	0.480324
1336.000000	0.485660
1335.000000	0.490843
1334.000000	0.495889
1333.000000	0.500766
1332.000000	0.505376
1331.000000	0.509660
1330.000000	0.513664
1329.000000	0.517455
1328.000000	0.521084
1327.000000	0.524700
1326.000000	0.528549
1325.000000	0.532805
1324.000000	0.537500
1323.000000	0.542628
1322.000000	0.548173
1321.000000	0.553860
1320.000000	0.559006
1319.000000	0.562721
1318.000000	0.564215
1317.000000	0.562945
1316.000000	0.558647
1315.000000	0.551474
1314.000000	0.542069
1313.000000	0.531290
1312.000000	0.519983
1311.000000	0.508901
1310.000000	0.498590
1309.000000	0.489264
1308.000000	0.480898
1307.000000	0.473480
1306.000000	0.467044
1305.000000	0.461495
1304.000000	0.456585
1303.000000	0.452122
1302.000000	0.448056
1301.000000	0.444383
1300.000000	0.441130
1299.000000	0.438407
1298.000000	0.436370
1297.000000	0.435076
1296.000000	0.434478
1295.000000	0.434560
1294.000000	0.435321
1293.000000	0.436685
1292.000000	0.438526
1291.000000	0.440786
1290.000000	0.443476
1289.000000	0.446517
1288.000000	0.449726
1287.000000	0.452956
1286.000000	0.456152
1285.000000	0.459251
1284.000000	0.462131
1283.000000	0.464716
1282.000000	0.467028
1281.000000	0.469124
1280.000000	0.471076
1279.000000	0.473024
1278.000000	0.475127
1277.000000	0.477410
1276.000000	0.479759
1275.000000	0.482091
1274.000000	0.484407
1273.000000	0.486673
1272.000000	0.488772
1271.000000	0.490650
1270.000000	0.492362
1269.000000	0.493939
1268.000000	0.495317
1267.000000	0.496443
1266.000000	0.497347
1265.000000	0.498043
1264.000000	0.498482
1263.000000	0.498656
1262.000000	0.498612
1261.000000	0.498356
1260.000000	0.497846
1259.000000	0.497125
1258.000000	0.496328
1257.000000	0.495514
1256.000000	0.494646
1255.000000	0.493745
1254.000000	0.492927
1253.000000	0.492244
1252.000000	0.491621
1251.000000	0.490996
1250.000000	0.490379
1249.000000	0.489745
1248.000000	0.488993
1247.000000	0.488053
1246.000000	0.486937
1245.000000	0.485630
1244.000000	0.484074
1243.000000	0.482287
1242.000000	0.480358
1241.000000	0.478312
1240.000000	0.476080
1239.000000	0.473638
1238.000000	0.471047
1237.000000	0.468322
1236.000000	0.465397
1235.000000	0.462233
1234.000000	0.458839
1233.000000	0.455197
1232.000000	0.451267
1231.000000	0.447090
1230.000000	0.442766
1229.000000	0.438314
1228.000000	0.433705
1227.000000	0.428996
1226.000000	0.424313
1225.000000	0.419713
1224.000000	0.415185
1223.000000	0.410778
1222.000000	0.406598
1221.000000	0.402671
1220.000000	0.398947
1219.000000	0.395430
1218.000000	0.392172
1217.000000	0.389173
1216.000000	0.386394
1215.000000	0.383846
1214.000000	0.381572
1213.000000	0.379553
1212.000000	0.377744
1211.000000	0.376166
1210.000000	0.374839
1209.000000	0.373673
1208.000000	0.372512
1207.000000	0.371278
1206.000000	0.369960
1205.000000	0.368500
1204.000000	0.366794
1203.000000	0.364800
1202.000000	0.362542
1201.000000	0.360023
1200.000000	0.357270
1199.000000	0.354410
1198.000000	0.351627
1197.000000	0.349060
1196.000000	0.346822
1195.000000	0.345074
1194.000000	0.343975
1193.000000	0.343577
1192.000000	0.343877
1191.000000	0.344927
1190.000000	0.346776
1189.000000	0.349396
1188.000000	0.352715
1187.000000	0.356717
1186.000000	0.361429
1185.000000	0.366809
1184.000000	0.372821
1183.000000	0.379559
1182.000000	0.387216
1181.000000	0.395925
1180.000000	0.405645
1179.000000	0.416286
1178.000000	0.427837
1177.000000	0.440357
1176.000000	0.453970
1175.000000	0.468829
1174.000000	0.485074
1173.000000	0.502716
1172.000000	0.521609
1171.000000	0.541580
1170.000000	0.562495
1169.000000	0.584123
1168.000000	0.605998
1167.000000	0.627555
1166.000000	0.648296
1165.000000	0.667769
1164.000000	0.685431
1163.000000	0.700804
1162.000000	0.713827
1161.000000	0.724658
1160.000000	0.733423
1159.000000	0.740320
1158.000000	0.745715
1157.000000	0.749948
1156.000000	0.752994
1155.000000	0.754760
1154.000000	0.755451
1153.000000	0.755317
1152.000000	0.754388
1151.000000	0.752647
1150.000000	0.750311
1149.000000	0.747599
1148.000000	0.744428
1147.000000	0.740676
1146.000000	0.736481
1145.000000	0.732049
1144.000000	0.727418
1143.000000	0.722687
1142.000000	0.718225
1141.000000	0.714411
1140.000000	0.711396
1139.000000	0.709298
1138.000000	0.708442
1137.000000	0.709080
1136.000000	0.711162
1135.000000	0.714562
1134.000000	0.719299
1133.000000	0.725394
1132.000000	0.732597
1131.000000	0.740569
1130.000000	0.749154
1129.000000	0.758194
1128.000000	0.767343
1127.000000	0.776293
1126.000000	0.785052
1125.000000	0.793691
1124.000000	0.802046
1123.000000	0.810000
1122.000000	0.817838
1121.000000	0.825926
1120.000000	0.834269
1119.000000	0.842763
1118.000000	0.851604
1117.000000	0.861008
1116.000000	0.870728
1115.000000	0.880277
1114.000000	0.889470
1113.000000	0.898252
1112.000000	0.906303
1111.000000	0.913317
1110.000000	0.919400
1109.000000	0.924738
1108.000000	0.929071
1107.000000	0.932077
1106.000000	0.933967
1105.000000	0.935054
1104.000000	0.935207
1103.000000	0.934246
1102.000000	0.932555
1101.000000	0.930742
1100.000000	0.929001
1099.000000	0.927389
1098.000000	0.926333
1097.000000	0.926295
1096.000000	0.927266
1095.000000	0.929161
1094.000000	0.932313
1093.000000	0.937096
1092.000000	0.943404
1091.000000	0.950948
1090.000000	0.959851
1089.000000	0.970278
1088.000000	0.981820
1087.000000	0.993887
1086.000000	1.006369
1085.000000	1.019323
1084.000000	1.032275
1083.000000	1.044572
1082.000000	1.056120
1081.000000	1.066986
1080.000000	1.076513
1079.000000	1.083770
1078.000000	1.088542
1077.000000	1.090915
1076.000000	1.090575
1075.000000	1.087356
1074.000000	1.082108
1073.000000	1.076073
1072.000000	1.069884
1071.000000	1.064050
1070.000000	1.059642
1069.000000	1.057636
1068.000000	1.058058
1067.000000	1.060561
1066.000000	1.065236
1065.000000	1.072197
1064.000000	1.080794
1063.000000	1.090047
1062.000000	1.099596
1061.000000	1.109340
1060.000000	1.118675
1059.000000	1.127040
1058.000000	1.134793
1057.000000	1.142506
1056.000000	1.149854
1055.000000	1.156160
1054.000000	1.161530
1053.000000	1.166418
1052.000000	1.170520
1051.000000	1.173344
1050.000000	1.175334
1049.000000	1.177193
1048.000000	1.178773
1047.000000	1.179739
1046.000000	1.180633
1045.000000	1.182125
1044.000000	1.183975
1043.000000	1.185833
1042.000000	1.188304
1041.000000	1.192110
1040.000000	1.196844
1039.000000	1.201667
1038.000000	1.206543
1037.000000	1.211651
1036.000000	1.216286
1035.000000	1.219631
1034.000000	1.222016
1033.000000	1.224149
1032.000000	1.225778
1031.000000	1.226339
1030.000000	1.226232
1029.000000	1.226062
1028.000000	1.225430
1027.000000	1.223679
1026.000000	1.221119
1025.000000	1.218323
1024.000000	1.214908
1023.000000	1.210327
1022.000000	1.205019
1021.000000	1.199576
1020.000000	1.193589
1019.000000	1.186393
1018.000000	1.178248
1017.000000	1.169632
1016.000000	1.160164
1015.000000	1.149387
1014.000000	1.137749
1013.000000	1.125896
1012.000000	1.113697
1011.000000	1.100847
1010.000000	1.087734
1009.000000	1.074768
1008.000000	1.061638
1007.000000	1.048016
1006.000000	1.034316
1005.000000	1.021027
1004.000000	1.007849
1003.000000	0.994224
1002.000000	0.980193
1001.000000	0.966082
1000.000000	0.951886
999.000000	0.937497
998.000000	0.923114
997.000000	0.908912
996.000000	0.894630
995.000000	0.879952
994.000000	0.864847
993.000000	0.849232
992.000000	0.832750
991.000000	0.815120
990.000000	0.796471
989.000000	0.776943
988.000000	0.756338
987.000000	0.734508
986.000000	0.711553
985.000000	0.687643
984.000000	0.662879
983.000000	0.637481
982.000000	0.611927
981.000000	0.586616
980.000000	0.561792
979.000000	0.537732
978.000000	0.514740
977.000000	0.492955
976.000000	0.472346
975.000000	0.452936
974.000000	0.434813
973.000000	0.417958
972.000000	0.402237
971.000000	0.387571
970.000000	0.373949
969.000000	0.361282
968.000000	0.349428
967.000000	0.338285
966.000000	0.327785
965.000000	0.317797
964.000000	0.308180
963.000000	0.298891
962.000000	0.289927
961.000000	0.281226
960.000000	0.272729
959.000000	0.264464
958.000000	0.256466
957.000000	0.248672
956.000000	0.240997
955.000000	0.233448
954.000000	0.226076
953.000000	0.218889
952.000000	0.211914
951.000000	0.205262
950.000000	0.199052
949.000000	0.193327
948.000000	0.188153
947.000000	0.183656
946.000000	0.179888
945.000000	0.176745
944.000000	0.174060
943.000000	0.171733
942.000000	0.169654
941.000000	0.167652
940.000000	0.165623
939.000000	0.163602
938.000000	0.161665
937.000000	0.159819
936.000000	0.158062
935.000000	0.156446
934.000000	0.154998
933.000000	0.153672
932.000000	0.152440
931.000000	0.151340
930.000000	0.150360
929.000000	0.149382
928.000000	0.148299
927.000000	0.147099
926.000000	0.145758
925.000000	0.144153
924.000000	0.142188
923.000000	0.139879
922.000000	0.137264
921.000000	0.134323
920.000000	0.131064
919.000000	0.127586
918.000000	0.123982
917.000000	0.120253
916.000000	0.116400
915.000000	0.112453
914.000000	0.108367
913.000000	0.104010
912.000000	0.099336
911.000000	0.094470
910.000000	0.089569
909.000000	0.084723
908.000000	0.080061
907.000000	0.075809
906.000000	0.072133
905.000000	0.069049
904.000000	0.066531
903.000000	0.064585
902.000000	0.063148
901.000000	0.062043
900.000000	0.061118
899.000000	0.060299
898.000000	0.059467
897.000000	0.058431
896.000000	0.057090
895.000000	0.055498
894.000000	0.053709
893.000000	0.051679
892.000000	0.049389
891.000000	0.046925
890.000000	0.044339
889.000000	0.041578
888.000000	0.038627
887.000000	0.035584
886.000000	0.032539
885.000000	0.029504
884.000000	0.026541
883.000000	0.023802
882.000000	0.021381
881.000000	0.019250
880.000000	0.017410
879.000000	0.015970
878.000000	0.014970
877.000000	0.014323
876.000000	0.013958
875.000000	0.013906
874.000000	0.014155
873.000000	0.014578
872.000000	0.015081
871.000000	0.015688
870.000000	0.016417
869.000000	0.017231
868.000000	0.018139
867.000000	0.019209
866.000000	0.020387
865.000000	0.021440
864.000000	0.022150
863.000000	0.022440
862.000000	0.022306
861.000000	0.021773
860.000000	0.020980
859.000000	0.020139
858.000000	0.019340
857.000000	0.018484
856.000000	0.017464
855.000000	0.016291
854.000000	0.014987
853.000000	0.013541
852.000000	0.012017
851.000000	0.010557
850.000000	0.009233
849.000000	0.008006
848.000000	0.006894
847.000000	0.006020
846.000000	0.005442
845.000000	0.005107
844.000000	0.005023
843.000000	0.005327
842.000000	0.006115
841.000000	0.007335
840.000000	0.008911
839.000000	0.010821
838.000000	0.012984
837.000000	0.015219
836.000000	0.017360
835.000000	0.019281
834.000000	0.020793
833.000000	0.021673
832.000000	0.021894
831.000000	0.021686
830.000000	0.021325
829.000000	0.020982
828.000000	0.020824
827.000000	0.021060
826.000000	0.021779
825.000000	0.022868
824.000000	0.024186
823.000000	0.025686
822.000000	0.027301
821.000000	0.028906
820.000000	0.030441
819.000000	0.031960
818.000000	0.033483
817.000000	0.034946
816.000000	0.036344
815.000000	0.037766
814.000000	0.039255
813.000000	0.040764
812.000000	0.042333
811.000000	0.044143
810.000000	0.046336
809.000000	0.048913
808.000000	0.051852
807.000000	0.055191
806.000000	0.058926
805.000000	0.062953
804.000000	0.067179
803.000000	0.071572
802.000000	0.076042
801.000000	0.080395
800.000000	0.084456
799.000000	0.088141
798.000000	0.091366
797.000000	0.094070
796.000000	0.096390
795.000000	0.098686
794.000000	0.101309
793.000000	0.104423
792.000000	0.108119
791.000000	0.112613
790.000000	0.118247
789.000000	0.125416
788.000000	0.134510
787.000000	0.145734
786.000000	0.158837
785.000000	0.172999
784.000000	0.186983
783.000000	0.199364
782.000000	0.208767
781.000000	0.214217
780.000000	0.215550
779.000000	0.213502
778.000000	0.209264
777.000000	0.203979
776.000000	0.198531
775.000000	0.193519
774.000000	0.189212
773.000000	0.185559
772.000000	0.182400
771.000000	0.179641
770.000000	0.177243
769.000000	0.175175
768.000000	0.173444
767.000000	0.172057
766.000000	0.170882
765.000000	0.169642
764.000000	0.168103
763.000000	0.166186
762.000000	0.163853
761.000000	0.161052
760.000000	0.157829
759.000000	0.154362
758.000000	0.150806
757.000000	0.147183
756.000000	0.143504
755.000000	0.139853
754.000000	0.136301
753.000000	0.132866
752.000000	0.129613
751.000000	0.126672
750.000000	0.124087
749.000000	0.121769
748.000000	0.119656
747.000000	0.117799
746.000000	0.116216
745.000000	0.114826
744.000000	0.113590
743.000000	0.112593
742.000000	0.111922
741.000000	0.111546
740.000000	0.111411
739.000000	0.111530
738.000000	0.111917
737.000000	0.112555
736.000000	0.113462
735.000000	0.114710
734.000000	0.116312
733.000000	0.118186
732.000000	0.120280
731.000000	0.122606
730.000000	0.125110
729.000000	0.127651
728.000000	0.130180
727.000000	0.132822
726.000000	0.135712
725.000000	0.138847
724.000000	0.142149
723.000000	0.145564
722.000000	0.149028
721.000000	0.152416
720.000000	0.155621
719.000000	0.158633
718.000000	0.161488
717.000000	0.164208
716.000000	0.166851
715.000000	0.169484
714.000000	0.172063
713.000000	0.174435
712.000000	0.176525
711.000000	0.178419
710.000000	0.180215
709.000000	0.181887
708.000000	0.183366
707.000000	0.184658
706.000000	0.185807
705.000000	0.186839
704.000000	0.187828
703.000000	0.188924
702.000000	0.190249
701.000000	0.191842
700.000000	0.193760
699.000000	0.196077
698.000000	0.198697
697.000000	0.201274
696.000000	0.203410
695.000000	0.204909
694.000000	0.205763
693.000000	0.206041
692.000000	0.205911
691.000000	0.205653
690.000000	0.205500
689.000000	0.205531
688.000000	0.205760
687.000000	0.206255
686.000000	0.207057
685.000000	0.208124
684.000000	0.209439
683.000000	0.211082
682.000000	0.213094
681.000000	0.215381
680.000000	0.217865
679.000000	0.220604
678.000000	0.223638
677.000000	0.226841
676.000000	0.230046
675.000000	0.233183
674.000000	0.236237
673.000000	0.239094
672.000000	0.241549
671.000000	0.243508
670.000000	0.245103
669.000000	0.246572
668.000000	0.248071
667.000000	0.249521
666.000000	0.250615
665.000000	0.251170
664.000000	0.251244
663.000000	0.250946
662.000000	0.250367
661.000000	0.249547
660.000000	0.248546
659.000000	0.247514
658.000000	0.246597
657.000000	0.245861
656.000000	0.245351
655.000000	0.245101
654.000000	0.245092
653.000000	0.245282
652.000000	0.245661
651.000000	0.246257
650.000000	0.247050
649.000000	0.247965
648.000000	0.248955
647.000000	0.250025
646.000000	0.251127
645.000000	0.252123
644.000000	0.252913
643.000000	0.253550
642.000000	0.254146
641.000000	0.254732
640.000000	0.255264
639.000000	0.255732
638.000000	0.256166
637.000000	0.256595
636.000000	0.257034
635.000000	0.257499
634.000000	0.257968
633.000000	0.258396
632.000000	0.258821
631.000000	0.259390
630.000000	0.260213
629.000000	0.261254
628.000000	0.262442
627.000000	0.263796
626.000000	0.265369
625.000000	0.267128
624.000000	0.268994
623.000000	0.270947
622.000000	0.272988
621.000000	0.275036
620.000000	0.276921
619.000000	0.278489
618.000000	0.279661
617.000000	0.280459
616.000000	0.281022
615.000000	0.281550
614.000000	0.282148
613.000000	0.282743
612.000000	0.283199
611.000000	0.283451
610.000000	0.283484
609.000000	0.283237
608.000000	0.282662
607.000000	0.281834
606.000000	0.280935
605.000000	0.280103
604.000000	0.279384
603.000000	0.278786
602.000000	0.278276
601.000000	0.277783
600.000000	0.277297
599.000000	0.276926
598.000000	0.276762
597.000000	0.276765
596.000000	0.276852
595.000000	0.277025
594.000000	0.277296
593.000000	0.277562
592.000000	0.277707
591.000000	0.277792
590.000000	0.278059
589.000000	0.278744
588.000000	0.279960
587.000000	0.281685
586.000000	0.283748
585.000000	0.285910
584.000000	0.288037
583.000000	0.290140
582.000000	0.292206
581.000000	0.294108
580.000000	0.295739
579.000000	0.297146
578.000000	0.298391
577.000000	0.299338
576.000000	0.299721
575.000000	0.299414
574.000000	0.298539
573.000000	0.297321
572.000000	0.295918
571.000000	0.294419
570.000000	0.292860
569.000000	0.291240
568.000000	0.289622
567.000000	0.288170
566.000000	0.287048
565.000000	0.286291
564.000000	0.285876
563.000000	0.285763
562.000000	0.285803
561.000000	0.285709
560.000000	0.285248
559.000000	0.284421
558.000000	0.283366
557.000000	0.282196
556.000000	0.281014
555.000000	0.279983
554.000000	0.279249
553.000000	0.278832
552.000000	0.278691
551.000000	0.278828
550.000000	0.279265
549.000000	0.280017
548.000000	0.281151
547.000000	0.282759
546.000000	0.284835
545.000000	0.287295
544.000000	0.290166
543.000000	0.293581
542.000000	0.297551
541.000000	0.301885
540.000000	0.306337
539.000000	0.310705
538.000000	0.314766
537.000000	0.318272
536.000000	0.321037
535.000000	0.322987
534.000000	0.324160
533.000000	0.324727
532.000000	0.324931
531.000000	0.324918
530.000000	0.324677
529.000000	0.324189
528.000000	0.323544
527.000000	0.322877
526.000000	0.322250
525.000000	0.321740
524.000000	0.321485
523.000000	0.321497
522.000000	0.321527
521.000000	0.321221
520.000000	0.320366
519.000000	0.318870
518.000000	0.316620
517.000000	0.313562
516.000000	0.309829
515.000000	0.305605
514.000000	0.300916
513.000000	0.295655
512.000000	0.289840
511.000000	0.283706
510.000000	0.277600
509.000000	0.271815
508.000000	0.266449
507.000000	0.261337
506.000000	0.256415
505.000000	0.252299
504.000000	0.250036
503.000000	0.249595
502.000000	0.248848
501.000000	0.245345
500.000000	0.239121
499.000000	0.232621
498.000000	0.227931
497.000000	0.225003
496.000000	0.222743
495.000000	0.220769
494.000000	0.219408
493.000000	0.218684
492.000000	0.218248
491.000000	0.218049
490.000000	0.218302
489.000000	0.218989
488.000000	0.219989
487.000000	0.221451
486.000000	0.223560
485.000000	0.226121
484.000000	0.228764
483.000000	0.231367
482.000000	0.233882
481.000000	0.236070
480.000000	0.237784
479.000000	0.239228
478.000000	0.240573
477.000000	0.241634
476.000000	0.242234
475.000000	0.242513
474.000000	0.242558
473.000000	0.241947
472.000000	0.240258
471.000000	0.237741
470.000000	0.234823
469.000000	0.231444
468.000000	0.227351
467.000000	0.222651
466.000000	0.217666
465.000000	0.212496
464.000000	0.207194
463.000000	0.202058
462.000000	0.197312
461.000000	0.192774
460.000000	0.188225
459.000000	0.183673
458.000000	0.178876
457.000000	0.173407
456.000000	0.167550
455.000000	0.162154
454.000000	0.157505
453.000000	0.153042
452.000000	0.148296
451.000000	0.143647
450.000000	0.139675
449.000000	0.136307
448.000000	0.133207
447.000000	0.130413
446.000000	0.128046
445.000000	0.125882
444.000000	0.123699
443.000000	0.121519
442.000000	0.119155
441.000000	0.116167
440.000000	0.112687
439.000000	0.109531
438.000000	0.107141
437.000000	0.105045
436.000000	0.102802
435.000000	0.100716
434.000000	0.098984
433.000000	0.097083
432.000000	0.094705
431.000000	0.092322
430.000000	0.090148
429.000000	0.087550
428.000000	0.084143
427.000000	0.080512
426.000000	0.077109
425.000000	0.073532
424.000000	0.069637
423.000000	0.066189
422.000000	0.063560
421.000000	0.061076
420.000000	0.058258
419.000000	0.055319
418.000000	0.052274
417.000000	0.048522
416.000000	0.043922
415.000000	0.039644
414.000000	0.036515
413.000000	0.033541
412.000000	0.029522
411.000000	0.024927
410.000000	0.020572
409.000000	0.015952
408.000000	0.010816
407.000000	0.006680
406.000000	0.004256
405.000000	0.002463
404.000000	0.000715
403.000000	0.000646
402.000000	0.003470
401.000000	0.007504
400.000000	0.010895
