PE IR       SUBTECH     SPECTRUM    ASCII       PEDS        4.00        
   -1
G001-110C.asc
17/02/23
11:02:18.00
17/02/23
11:02:47.00
Administrator
Sample 125 By Administrator Date Thursday, February 23 2017
400.000000
#HDR
-1
-1
#GR
cm-1
A
1.0
0.0
4000.000000
-1.000000
3601
8
1.235040
-0.001589
#DATA
4000.000000	0.004021
3999.000000	0.004138
3998.000000	0.004257
3997.000000	0.004377
3996.000000	0.004498
3995.000000	0.004625
3994.000000	0.004759
3993.000000	0.004892
3992.000000	0.005015
3991.000000	0.005125
3990.000000	0.005225
3989.000000	0.005326
3988.000000	0.005437
3987.000000	0.005561
3986.000000	0.005693
3985.000000	0.005821
3984.000000	0.005934
3983.000000	0.006028
3982.000000	0.006109
3981.000000	0.006195
3980.000000	0.006301
3979.000000	0.006431
3978.000000	0.006577
3977.000000	0.006726
3976.000000	0.006867
3975.000000	0.006998
3974.000000	0.007121
3973.000000	0.007235
3972.000000	0.007340
3971.000000	0.007436
3970.000000	0.007526
3969.000000	0.007616
3968.000000	0.007706
3967.000000	0.007803
3966.000000	0.007911
3965.000000	0.008037
3964.000000	0.008174
3963.000000	0.008309
3962.000000	0.008438
3961.000000	0.008561
3960.000000	0.008684
3959.000000	0.008805
3958.000000	0.008918
3957.000000	0.009022
3956.000000	0.009123
3955.000000	0.009235
3954.000000	0.009370
3953.000000	0.009532
3952.000000	0.009716
3951.000000	0.009909
3950.000000	0.010090
3949.000000	0.010258
3948.000000	0.010426
3947.000000	0.010615
3946.000000	0.010819
3945.000000	0.011003
3944.000000	0.011126
3943.000000	0.011177
3942.000000	0.011188
3941.000000	0.011203
3940.000000	0.011239
3939.000000	0.011292
3938.000000	0.011362
3937.000000	0.011472
3936.000000	0.011645
3935.000000	0.011877
3934.000000	0.012130
3933.000000	0.012357
3932.000000	0.012537
3931.000000	0.012675
3930.000000	0.012793
3929.000000	0.012910
3928.000000	0.013027
3927.000000	0.013129
3926.000000	0.013207
3925.000000	0.013274
3924.000000	0.013361
3923.000000	0.013501
3922.000000	0.013702
3921.000000	0.013946
3920.000000	0.014186
3919.000000	0.014378
3918.000000	0.014505
3917.000000	0.014570
3916.000000	0.014590
3915.000000	0.014576
3914.000000	0.014536
3913.000000	0.014478
3912.000000	0.014413
3911.000000	0.014384
3910.000000	0.014456
3909.000000	0.014684
3908.000000	0.015077
3907.000000	0.015581
3906.000000	0.016117
3905.000000	0.016627
3904.000000	0.017114
3903.000000	0.017607
3902.000000	0.018084
3901.000000	0.018450
3900.000000	0.018608
3899.000000	0.018532
3898.000000	0.018308
3897.000000	0.018075
3896.000000	0.017935
3895.000000	0.017918
3894.000000	0.017975
3893.000000	0.018022
3892.000000	0.018028
3891.000000	0.018061
3890.000000	0.018228
3889.000000	0.018574
3888.000000	0.019030
3887.000000	0.019438
3886.000000	0.019698
3885.000000	0.019871
3884.000000	0.020094
3883.000000	0.020405
3882.000000	0.020675
3881.000000	0.020740
3880.000000	0.020599
3879.000000	0.020431
3878.000000	0.020420
3877.000000	0.020597
3876.000000	0.020849
3875.000000	0.021071
3874.000000	0.021277
3873.000000	0.021555
3872.000000	0.021935
3871.000000	0.022344
3870.000000	0.022693
3869.000000	0.022985
3868.000000	0.023283
3867.000000	0.023612
3866.000000	0.023907
3865.000000	0.024039
3864.000000	0.023969
3863.000000	0.023810
3862.000000	0.023704
3861.000000	0.023719
3860.000000	0.023857
3859.000000	0.024135
3858.000000	0.024603
3857.000000	0.025272
3856.000000	0.026038
3855.000000	0.026678
3854.000000	0.027094
3853.000000	0.027469
3852.000000	0.027893
3851.000000	0.028191
3850.000000	0.028206
3849.000000	0.027940
3848.000000	0.027507
3847.000000	0.027081
3846.000000	0.026811
3845.000000	0.026746
3844.000000	0.026883
3843.000000	0.027200
3842.000000	0.027661
3841.000000	0.028223
3840.000000	0.028814
3839.000000	0.029362
3838.000000	0.029848
3837.000000	0.030284
3836.000000	0.030652
3835.000000	0.030901
3834.000000	0.030985
3833.000000	0.030902
3832.000000	0.030709
3831.000000	0.030515
3830.000000	0.030441
3829.000000	0.030515
3828.000000	0.030673
3827.000000	0.030858
3826.000000	0.031094
3825.000000	0.031468
3824.000000	0.032021
3823.000000	0.032659
3822.000000	0.033208
3821.000000	0.033607
3820.000000	0.033972
3819.000000	0.034417
3818.000000	0.034901
3817.000000	0.035249
3816.000000	0.035342
3815.000000	0.035265
3814.000000	0.035209
3813.000000	0.035269
3812.000000	0.035405
3811.000000	0.035563
3810.000000	0.035740
3809.000000	0.035944
3808.000000	0.036186
3807.000000	0.036511
3806.000000	0.036995
3805.000000	0.037674
3804.000000	0.038466
3803.000000	0.039175
3802.000000	0.039631
3801.000000	0.039876
3800.000000	0.040119
3799.000000	0.040476
3798.000000	0.040846
3797.000000	0.041043
3796.000000	0.041000
3795.000000	0.040847
3794.000000	0.040776
3793.000000	0.040871
3792.000000	0.041079
3791.000000	0.041318
3790.000000	0.041568
3789.000000	0.041859
3788.000000	0.042213
3787.000000	0.042616
3786.000000	0.043035
3785.000000	0.043460
3784.000000	0.043908
3783.000000	0.044415
3782.000000	0.044986
3781.000000	0.045559
3780.000000	0.046040
3779.000000	0.046402
3778.000000	0.046713
3777.000000	0.047045
3776.000000	0.047416
3775.000000	0.047822
3774.000000	0.048265
3773.000000	0.048751
3772.000000	0.049276
3771.000000	0.049824
3770.000000	0.050388
3769.000000	0.050984
3768.000000	0.051614
3767.000000	0.052228
3766.000000	0.052760
3765.000000	0.053192
3764.000000	0.053586
3763.000000	0.054037
3762.000000	0.054588
3761.000000	0.055186
3760.000000	0.055734
3759.000000	0.056235
3758.000000	0.056783
3757.000000	0.057443
3756.000000	0.058201
3755.000000	0.059021
3754.000000	0.059880
3753.000000	0.060759
3752.000000	0.061634
3751.000000	0.062549
3750.000000	0.063591
3749.000000	0.064750
3748.000000	0.065915
3747.000000	0.066963
3746.000000	0.067778
3745.000000	0.068293
3744.000000	0.068649
3743.000000	0.069045
3742.000000	0.069534
3741.000000	0.070063
3740.000000	0.070565
3739.000000	0.071036
3738.000000	0.071558
3737.000000	0.072224
3736.000000	0.073065
3735.000000	0.074004
3734.000000	0.074913
3733.000000	0.075689
3732.000000	0.076275
3731.000000	0.076716
3730.000000	0.077138
3729.000000	0.077652
3728.000000	0.078272
3727.000000	0.078955
3726.000000	0.079692
3725.000000	0.080519
3724.000000	0.081452
3723.000000	0.082422
3722.000000	0.083354
3721.000000	0.084247
3720.000000	0.085140
3719.000000	0.086070
3718.000000	0.087065
3717.000000	0.088140
3716.000000	0.089323
3715.000000	0.090655
3714.000000	0.092173
3713.000000	0.093869
3712.000000	0.095678
3711.000000	0.097543
3710.000000	0.099416
3709.000000	0.101223
3708.000000	0.102900
3707.000000	0.104452
3706.000000	0.105980
3705.000000	0.107613
3704.000000	0.109422
3703.000000	0.111402
3702.000000	0.113506
3701.000000	0.115690
3700.000000	0.117897
3699.000000	0.120047
3698.000000	0.122072
3697.000000	0.123910
3696.000000	0.125536
3695.000000	0.126997
3694.000000	0.128397
3693.000000	0.129809
3692.000000	0.131245
3691.000000	0.132698
3690.000000	0.134208
3689.000000	0.135832
3688.000000	0.137534
3687.000000	0.139193
3686.000000	0.140737
3685.000000	0.142193
3684.000000	0.143636
3683.000000	0.145173
3682.000000	0.146930
3681.000000	0.148984
3680.000000	0.151346
3679.000000	0.154001
3678.000000	0.157018
3677.000000	0.160477
3676.000000	0.164275
3675.000000	0.168136
3674.000000	0.171848
3673.000000	0.175415
3672.000000	0.178955
3671.000000	0.182493
3670.000000	0.185949
3669.000000	0.189305
3668.000000	0.192610
3667.000000	0.195861
3666.000000	0.199024
3665.000000	0.202112
3664.000000	0.205221
3663.000000	0.208485
3662.000000	0.211978
3661.000000	0.215660
3660.000000	0.219447
3659.000000	0.223314
3658.000000	0.227303
3657.000000	0.231413
3656.000000	0.235554
3655.000000	0.239618
3654.000000	0.243606
3653.000000	0.247607
3652.000000	0.251712
3651.000000	0.255955
3650.000000	0.260353
3649.000000	0.264900
3648.000000	0.269440
3647.000000	0.273669
3646.000000	0.277395
3645.000000	0.280671
3644.000000	0.283690
3643.000000	0.286664
3642.000000	0.289751
3641.000000	0.293044
3640.000000	0.296570
3639.000000	0.300300
3638.000000	0.304182
3637.000000	0.308171
3636.000000	0.312243
3635.000000	0.316370
3634.000000	0.320497
3633.000000	0.324600
3632.000000	0.328796
3631.000000	0.333314
3630.000000	0.338300
3629.000000	0.343596
3628.000000	0.348793
3627.000000	0.353543
3626.000000	0.357725
3625.000000	0.361358
3624.000000	0.364525
3623.000000	0.367393
3622.000000	0.370192
3621.000000	0.373092
3620.000000	0.376125
3619.000000	0.379240
3618.000000	0.382394
3617.000000	0.385553
3616.000000	0.388691
3615.000000	0.391813
3614.000000	0.394949
3613.000000	0.398134
3612.000000	0.401417
3611.000000	0.404866
3610.000000	0.408518
3609.000000	0.412307
3608.000000	0.416083
3607.000000	0.419751
3606.000000	0.423309
3605.000000	0.426779
3604.000000	0.430187
3603.000000	0.433600
3602.000000	0.437125
3601.000000	0.440816
3600.000000	0.444622
3599.000000	0.448467
3598.000000	0.452339
3597.000000	0.456249
3596.000000	0.460201
3595.000000	0.464197
3594.000000	0.468230
3593.000000	0.472257
3592.000000	0.476240
3591.000000	0.480229
3590.000000	0.484380
3589.000000	0.488821
3588.000000	0.493542
3587.000000	0.498370
3586.000000	0.503049
3585.000000	0.507363
3584.000000	0.511253
3583.000000	0.514849
3582.000000	0.518370
3581.000000	0.521971
3580.000000	0.525707
3579.000000	0.529589
3578.000000	0.533623
3577.000000	0.537769
3576.000000	0.541955
3575.000000	0.546149
3574.000000	0.550371
3573.000000	0.554630
3572.000000	0.558921
3571.000000	0.563276
3570.000000	0.567755
3569.000000	0.572366
3568.000000	0.577045
3567.000000	0.581723
3566.000000	0.586332
3565.000000	0.590770
3564.000000	0.594960
3563.000000	0.598931
3562.000000	0.602782
3561.000000	0.606586
3560.000000	0.610377
3559.000000	0.614195
3558.000000	0.618082
3557.000000	0.622019
3556.000000	0.625963
3555.000000	0.629946
3554.000000	0.634043
3553.000000	0.638239
3552.000000	0.642425
3551.000000	0.646525
3550.000000	0.650587
3549.000000	0.654710
3548.000000	0.658961
3547.000000	0.663339
3546.000000	0.667746
3545.000000	0.671985
3544.000000	0.675892
3543.000000	0.679467
3542.000000	0.682839
3541.000000	0.686144
3540.000000	0.689502
3539.000000	0.693039
3538.000000	0.696801
3537.000000	0.700651
3536.000000	0.704367
3535.000000	0.707863
3534.000000	0.711232
3533.000000	0.714585
3532.000000	0.717975
3531.000000	0.721433
3530.000000	0.724985
3529.000000	0.728608
3528.000000	0.732258
3527.000000	0.735954
3526.000000	0.739732
3525.000000	0.743520
3524.000000	0.747145
3523.000000	0.750493
3522.000000	0.753584
3521.000000	0.756527
3520.000000	0.759450
3519.000000	0.762473
3518.000000	0.765645
3517.000000	0.768906
3516.000000	0.772175
3515.000000	0.775428
3514.000000	0.778649
3513.000000	0.781763
3512.000000	0.784725
3511.000000	0.787615
3510.000000	0.790544
3509.000000	0.793508
3508.000000	0.796441
3507.000000	0.799367
3506.000000	0.802386
3505.000000	0.805522
3504.000000	0.808683
3503.000000	0.811753
3502.000000	0.814647
3501.000000	0.817312
3500.000000	0.819785
3499.000000	0.822211
3498.000000	0.824704
3497.000000	0.827236
3496.000000	0.829719
3495.000000	0.832145
3494.000000	0.834550
3493.000000	0.836912
3492.000000	0.839203
3491.000000	0.841485
3490.000000	0.843843
3489.000000	0.846261
3488.000000	0.848666
3487.000000	0.851035
3486.000000	0.853370
3485.000000	0.855636
3484.000000	0.857838
3483.000000	0.860095
3482.000000	0.862497
3481.000000	0.864944
3480.000000	0.867238
3479.000000	0.869302
3478.000000	0.871208
3477.000000	0.873037
3476.000000	0.874851
3475.000000	0.876729
3474.000000	0.878737
3473.000000	0.880877
3472.000000	0.883136
3471.000000	0.885524
3470.000000	0.887972
3469.000000	0.890270
3468.000000	0.892230
3467.000000	0.893866
3466.000000	0.895325
3465.000000	0.896726
3464.000000	0.898163
3463.000000	0.899752
3462.000000	0.901527
3461.000000	0.903349
3460.000000	0.905043
3459.000000	0.906577
3458.000000	0.908025
3457.000000	0.909424
3456.000000	0.910795
3455.000000	0.912207
3454.000000	0.913697
3453.000000	0.915184
3452.000000	0.916576
3451.000000	0.917913
3450.000000	0.919285
3449.000000	0.920689
3448.000000	0.922060
3447.000000	0.923383
3446.000000	0.924660
3445.000000	0.925839
3444.000000	0.926899
3443.000000	0.927916
3442.000000	0.928984
3441.000000	0.930111
3440.000000	0.931299
3439.000000	0.932608
3438.000000	0.934029
3437.000000	0.935390
3436.000000	0.936495
3435.000000	0.937300
3434.000000	0.937886
3433.000000	0.938337
3432.000000	0.938748
3431.000000	0.939221
3430.000000	0.939764
3429.000000	0.940242
3428.000000	0.940559
3427.000000	0.940785
3426.000000	0.941040
3425.000000	0.941345
3424.000000	0.941681
3423.000000	0.942080
3422.000000	0.942544
3421.000000	0.942972
3420.000000	0.943272
3419.000000	0.943482
3418.000000	0.943674
3417.000000	0.943854
3416.000000	0.944041
3415.000000	0.944326
3414.000000	0.944740
3413.000000	0.945151
3412.000000	0.945424
3411.000000	0.945569
3410.000000	0.945656
3409.000000	0.945666
3408.000000	0.945562
3407.000000	0.945414
3406.000000	0.945357
3405.000000	0.945487
3404.000000	0.945867
3403.000000	0.946506
3402.000000	0.947236
3401.000000	0.947709
3400.000000	0.947672
3399.000000	0.947185
3398.000000	0.946520
3397.000000	0.945931
3396.000000	0.945598
3395.000000	0.945642
3394.000000	0.946020
3393.000000	0.946474
3392.000000	0.946694
3391.000000	0.946541
3390.000000	0.946069
3389.000000	0.945429
3388.000000	0.944813
3387.000000	0.944380
3386.000000	0.944131
3385.000000	0.943937
3384.000000	0.943720
3383.000000	0.943542
3382.000000	0.943453
3381.000000	0.943385
3380.000000	0.943258
3379.000000	0.943088
3378.000000	0.942906
3377.000000	0.942664
3376.000000	0.942332
3375.000000	0.941977
3374.000000	0.941691
3373.000000	0.941511
3372.000000	0.941450
3371.000000	0.941509
3370.000000	0.941580
3369.000000	0.941446
3368.000000	0.940967
3367.000000	0.940200
3366.000000	0.939285
3365.000000	0.938321
3364.000000	0.937391
3363.000000	0.936586
3362.000000	0.935906
3361.000000	0.935238
3360.000000	0.934496
3359.000000	0.933692
3358.000000	0.932847
3357.000000	0.931924
3356.000000	0.930941
3355.000000	0.930015
3354.000000	0.929223
3353.000000	0.928497
3352.000000	0.927699
3351.000000	0.926737
3350.000000	0.925556
3349.000000	0.924134
3348.000000	0.922561
3347.000000	0.921012
3346.000000	0.919586
3345.000000	0.918229
3344.000000	0.916853
3343.000000	0.915437
3342.000000	0.913979
3341.000000	0.912446
3340.000000	0.910836
3339.000000	0.909178
3338.000000	0.907446
3337.000000	0.905568
3336.000000	0.903558
3335.000000	0.901536
3334.000000	0.899573
3333.000000	0.897627
3332.000000	0.895654
3331.000000	0.893695
3330.000000	0.891781
3329.000000	0.889878
3328.000000	0.887963
3327.000000	0.886055
3326.000000	0.884120
3325.000000	0.882064
3324.000000	0.879865
3323.000000	0.877612
3322.000000	0.875388
3321.000000	0.873181
3320.000000	0.870982
3319.000000	0.868832
3318.000000	0.866747
3317.000000	0.864672
3316.000000	0.862569
3315.000000	0.860458
3314.000000	0.858345
3313.000000	0.856194
3312.000000	0.854014
3311.000000	0.851876
3310.000000	0.849803
3309.000000	0.847724
3308.000000	0.845582
3307.000000	0.843389
3306.000000	0.841145
3305.000000	0.838789
3304.000000	0.836299
3303.000000	0.833741
3302.000000	0.831190
3301.000000	0.828665
3300.000000	0.826184
3299.000000	0.823779
3298.000000	0.821432
3297.000000	0.819060
3296.000000	0.816626
3295.000000	0.814167
3294.000000	0.811704
3293.000000	0.809189
3292.000000	0.806589
3291.000000	0.803940
3290.000000	0.801281
3289.000000	0.798604
3288.000000	0.795904
3287.000000	0.793215
3286.000000	0.790542
3285.000000	0.787848
3284.000000	0.785112
3283.000000	0.782366
3282.000000	0.779628
3281.000000	0.776874
3280.000000	0.774093
3279.000000	0.771314
3278.000000	0.768546
3277.000000	0.765759
3276.000000	0.762933
3275.000000	0.760088
3274.000000	0.757230
3273.000000	0.754345
3272.000000	0.751442
3271.000000	0.748557
3270.000000	0.745685
3269.000000	0.742775
3268.000000	0.739809
3267.000000	0.736828
3266.000000	0.733867
3265.000000	0.730921
3264.000000	0.727988
3263.000000	0.725083
3262.000000	0.722198
3261.000000	0.719293
3260.000000	0.716357
3259.000000	0.713425
3258.000000	0.710519
3257.000000	0.707625
3256.000000	0.704733
3255.000000	0.701844
3254.000000	0.698940
3253.000000	0.695990
3252.000000	0.693011
3251.000000	0.690058
3250.000000	0.687150
3249.000000	0.684257
3248.000000	0.681350
3247.000000	0.678429
3246.000000	0.675492
3245.000000	0.672526
3244.000000	0.669539
3243.000000	0.666561
3242.000000	0.663593
3241.000000	0.660610
3240.000000	0.657616
3239.000000	0.654636
3238.000000	0.651670
3237.000000	0.648691
3236.000000	0.645697
3235.000000	0.642707
3234.000000	0.639718
3233.000000	0.636700
3232.000000	0.633650
3231.000000	0.630600
3230.000000	0.627562
3229.000000	0.624511
3228.000000	0.621435
3227.000000	0.618349
3226.000000	0.615263
3225.000000	0.612167
3224.000000	0.609065
3223.000000	0.605978
3222.000000	0.602904
3221.000000	0.599823
3220.000000	0.596726
3219.000000	0.593628
3218.000000	0.590529
3217.000000	0.587412
3216.000000	0.584276
3215.000000	0.581140
3214.000000	0.578005
3213.000000	0.574858
3212.000000	0.571703
3211.000000	0.568557
3210.000000	0.565417
3209.000000	0.562259
3208.000000	0.559087
3207.000000	0.555929
3206.000000	0.552798
3205.000000	0.549679
3204.000000	0.546555
3203.000000	0.543426
3202.000000	0.540295
3201.000000	0.537166
3200.000000	0.534047
3199.000000	0.530941
3198.000000	0.527832
3197.000000	0.524701
3196.000000	0.521563
3195.000000	0.518447
3194.000000	0.515355
3193.000000	0.512267
3192.000000	0.509176
3191.000000	0.506093
3190.000000	0.503026
3189.000000	0.499976
3188.000000	0.496946
3187.000000	0.493940
3186.000000	0.490941
3185.000000	0.487932
3184.000000	0.484915
3183.000000	0.481910
3182.000000	0.478920
3181.000000	0.475939
3180.000000	0.472968
3179.000000	0.470016
3178.000000	0.467078
3177.000000	0.464143
3176.000000	0.461213
3175.000000	0.458300
3174.000000	0.455406
3173.000000	0.452526
3172.000000	0.449662
3171.000000	0.446819
3170.000000	0.443993
3169.000000	0.441174
3168.000000	0.438365
3167.000000	0.435575
3166.000000	0.432797
3165.000000	0.430020
3164.000000	0.427250
3163.000000	0.424506
3162.000000	0.421794
3161.000000	0.419104
3160.000000	0.416433
3159.000000	0.413782
3158.000000	0.411149
3157.000000	0.408532
3156.000000	0.405934
3155.000000	0.403368
3154.000000	0.400825
3153.000000	0.398287
3152.000000	0.395734
3151.000000	0.393163
3150.000000	0.390585
3149.000000	0.388018
3148.000000	0.385489
3147.000000	0.383006
3146.000000	0.380558
3145.000000	0.378123
3144.000000	0.375702
3143.000000	0.373305
3142.000000	0.370939
3141.000000	0.368600
3140.000000	0.366273
3139.000000	0.363950
3138.000000	0.361624
3137.000000	0.359302
3136.000000	0.356999
3135.000000	0.354720
3134.000000	0.352460
3133.000000	0.350213
3132.000000	0.347987
3131.000000	0.345792
3130.000000	0.343624
3129.000000	0.341472
3128.000000	0.339328
3127.000000	0.337196
3126.000000	0.335083
3125.000000	0.332996
3124.000000	0.330944
3123.000000	0.328935
3122.000000	0.326965
3121.000000	0.325019
3120.000000	0.323082
3119.000000	0.321144
3118.000000	0.319202
3117.000000	0.317256
3116.000000	0.315310
3115.000000	0.313364
3114.000000	0.311424
3113.000000	0.309509
3112.000000	0.307642
3111.000000	0.305833
3110.000000	0.304065
3109.000000	0.302314
3108.000000	0.300561
3107.000000	0.298810
3106.000000	0.297074
3105.000000	0.295372
3104.000000	0.293713
3103.000000	0.292092
3102.000000	0.290496
3101.000000	0.288913
3100.000000	0.287340
3099.000000	0.285778
3098.000000	0.284226
3097.000000	0.282688
3096.000000	0.281170
3095.000000	0.279673
3094.000000	0.278197
3093.000000	0.276747
3092.000000	0.275328
3091.000000	0.273935
3090.000000	0.272555
3089.000000	0.271180
3088.000000	0.269816
3087.000000	0.268473
3086.000000	0.267155
3085.000000	0.265861
3084.000000	0.264582
3083.000000	0.263312
3082.000000	0.262048
3081.000000	0.260795
3080.000000	0.259554
3079.000000	0.258318
3078.000000	0.257078
3077.000000	0.255835
3076.000000	0.254601
3075.000000	0.253385
3074.000000	0.252194
3073.000000	0.251032
3072.000000	0.249899
3071.000000	0.248790
3070.000000	0.247694
3069.000000	0.246609
3068.000000	0.245529
3067.000000	0.244436
3066.000000	0.243311
3065.000000	0.242152
3064.000000	0.240971
3063.000000	0.239778
3062.000000	0.238573
3061.000000	0.237354
3060.000000	0.236126
3059.000000	0.234894
3058.000000	0.233657
3057.000000	0.232417
3056.000000	0.231176
3055.000000	0.229935
3054.000000	0.228703
3053.000000	0.227489
3052.000000	0.226300
3051.000000	0.225129
3050.000000	0.223966
3049.000000	0.222810
3048.000000	0.221673
3047.000000	0.220563
3046.000000	0.219482
3045.000000	0.218430
3044.000000	0.217407
3043.000000	0.216410
3042.000000	0.215431
3041.000000	0.214467
3040.000000	0.213518
3039.000000	0.212586
3038.000000	0.211678
3037.000000	0.210804
3036.000000	0.209968
3035.000000	0.209163
3034.000000	0.208379
3033.000000	0.207609
3032.000000	0.206851
3031.000000	0.206101
3030.000000	0.205361
3029.000000	0.204640
3028.000000	0.203949
3027.000000	0.203290
3026.000000	0.202661
3025.000000	0.202069
3024.000000	0.201523
3023.000000	0.201022
3022.000000	0.200556
3021.000000	0.200125
3020.000000	0.199739
3019.000000	0.199407
3018.000000	0.199136
3017.000000	0.198930
3016.000000	0.198789
3015.000000	0.198705
3014.000000	0.198666
3013.000000	0.198662
3012.000000	0.198682
3011.000000	0.198723
3010.000000	0.198793
3009.000000	0.198913
3008.000000	0.199094
3007.000000	0.199333
3006.000000	0.199624
3005.000000	0.199971
3004.000000	0.200376
3003.000000	0.200840
3002.000000	0.201365
3001.000000	0.201969
3000.000000	0.202668
2999.000000	0.203468
2998.000000	0.204365
2997.000000	0.205367
2996.000000	0.206488
2995.000000	0.207739
2994.000000	0.209122
2993.000000	0.210638
2992.000000	0.212295
2991.000000	0.214097
2990.000000	0.216044
2989.000000	0.218135
2988.000000	0.220369
2987.000000	0.222740
2986.000000	0.225240
2985.000000	0.227862
2984.000000	0.230600
2983.000000	0.233442
2982.000000	0.236378
2981.000000	0.239406
2980.000000	0.242526
2979.000000	0.245731
2978.000000	0.249014
2977.000000	0.252375
2976.000000	0.255815
2975.000000	0.259326
2974.000000	0.262895
2973.000000	0.266515
2972.000000	0.270183
2971.000000	0.273892
2970.000000	0.277627
2969.000000	0.281371
2968.000000	0.285116
2967.000000	0.288854
2966.000000	0.292570
2965.000000	0.296252
2964.000000	0.299891
2963.000000	0.303482
2962.000000	0.307026
2961.000000	0.310532
2960.000000	0.314021
2959.000000	0.317510
2958.000000	0.321012
2957.000000	0.324535
2956.000000	0.328101
2955.000000	0.331735
2954.000000	0.335460
2953.000000	0.339291
2952.000000	0.343242
2951.000000	0.347327
2950.000000	0.351551
2949.000000	0.355915
2948.000000	0.360410
2947.000000	0.365014
2946.000000	0.369685
2945.000000	0.374377
2944.000000	0.379052
2943.000000	0.383671
2942.000000	0.388186
2941.000000	0.392548
2940.000000	0.396725
2939.000000	0.400696
2938.000000	0.404431
2937.000000	0.407902
2936.000000	0.411085
2935.000000	0.413954
2934.000000	0.416474
2933.000000	0.418615
2932.000000	0.420365
2931.000000	0.421703
2930.000000	0.422586
2929.000000	0.422956
2928.000000	0.422766
2927.000000	0.421971
2926.000000	0.420520
2925.000000	0.418384
2924.000000	0.415568
2923.000000	0.412117
2922.000000	0.408092
2921.000000	0.403580
2920.000000	0.398704
2919.000000	0.393601
2918.000000	0.388397
2917.000000	0.383202
2916.000000	0.378110
2915.000000	0.373189
2914.000000	0.368472
2913.000000	0.363977
2912.000000	0.359723
2911.000000	0.355719
2910.000000	0.351954
2909.000000	0.348409
2908.000000	0.345059
2907.000000	0.341877
2906.000000	0.338831
2905.000000	0.335904
2904.000000	0.333089
2903.000000	0.330373
2902.000000	0.327734
2901.000000	0.325150
2900.000000	0.322613
2899.000000	0.320119
2898.000000	0.317651
2897.000000	0.315198
2896.000000	0.312753
2895.000000	0.310317
2894.000000	0.307888
2893.000000	0.305465
2892.000000	0.303048
2891.000000	0.300632
2890.000000	0.298207
2889.000000	0.295766
2888.000000	0.293305
2887.000000	0.290825
2886.000000	0.288327
2885.000000	0.285815
2884.000000	0.283292
2883.000000	0.280751
2882.000000	0.278187
2881.000000	0.275602
2880.000000	0.273002
2879.000000	0.270378
2878.000000	0.267717
2877.000000	0.265009
2876.000000	0.262252
2875.000000	0.259443
2874.000000	0.256576
2873.000000	0.253650
2872.000000	0.250671
2871.000000	0.247658
2870.000000	0.244648
2869.000000	0.241696
2868.000000	0.238862
2867.000000	0.236197
2866.000000	0.233746
2865.000000	0.231558
2864.000000	0.229670
2863.000000	0.228093
2862.000000	0.226809
2861.000000	0.225778
2860.000000	0.224931
2859.000000	0.224162
2858.000000	0.223336
2857.000000	0.222303
2856.000000	0.220905
2855.000000	0.218997
2854.000000	0.216482
2853.000000	0.213340
2852.000000	0.209619
2851.000000	0.205421
2850.000000	0.200886
2849.000000	0.196172
2848.000000	0.191423
2847.000000	0.186753
2846.000000	0.182243
2845.000000	0.177946
2844.000000	0.173885
2843.000000	0.170053
2842.000000	0.166432
2841.000000	0.163007
2840.000000	0.159762
2839.000000	0.156672
2838.000000	0.153716
2837.000000	0.150882
2836.000000	0.148159
2835.000000	0.145534
2834.000000	0.143001
2833.000000	0.140565
2832.000000	0.138228
2831.000000	0.135982
2830.000000	0.133819
2829.000000	0.131742
2828.000000	0.129753
2827.000000	0.127846
2826.000000	0.126016
2825.000000	0.124263
2824.000000	0.122582
2823.000000	0.120961
2822.000000	0.119392
2821.000000	0.117881
2820.000000	0.116426
2819.000000	0.115018
2818.000000	0.113658
2817.000000	0.112351
2816.000000	0.111102
2815.000000	0.109896
2814.000000	0.108722
2813.000000	0.107575
2812.000000	0.106455
2811.000000	0.105360
2810.000000	0.104295
2809.000000	0.103270
2808.000000	0.102287
2807.000000	0.101334
2806.000000	0.100402
2805.000000	0.099495
2804.000000	0.098611
2803.000000	0.097739
2802.000000	0.096878
2801.000000	0.096040
2800.000000	0.095232
2799.000000	0.094450
2798.000000	0.093692
2797.000000	0.092960
2796.000000	0.092250
2795.000000	0.091549
2794.000000	0.090855
2793.000000	0.090180
2792.000000	0.089529
2791.000000	0.088895
2790.000000	0.088280
2789.000000	0.087690
2788.000000	0.087128
2787.000000	0.086578
2786.000000	0.086035
2785.000000	0.085503
2784.000000	0.084988
2783.000000	0.084483
2782.000000	0.083993
2781.000000	0.083530
2780.000000	0.083093
2779.000000	0.082670
2778.000000	0.082251
2777.000000	0.081843
2776.000000	0.081453
2775.000000	0.081082
2774.000000	0.080733
2773.000000	0.080414
2772.000000	0.080120
2771.000000	0.079833
2770.000000	0.079542
2769.000000	0.079249
2768.000000	0.078947
2767.000000	0.078624
2766.000000	0.078277
2765.000000	0.077914
2764.000000	0.077540
2763.000000	0.077149
2762.000000	0.076746
2761.000000	0.076344
2760.000000	0.075951
2759.000000	0.075561
2758.000000	0.075180
2757.000000	0.074825
2756.000000	0.074498
2755.000000	0.074190
2754.000000	0.073888
2753.000000	0.073595
2752.000000	0.073307
2751.000000	0.073015
2750.000000	0.072722
2749.000000	0.072442
2748.000000	0.072182
2747.000000	0.071935
2746.000000	0.071693
2745.000000	0.071460
2744.000000	0.071229
2743.000000	0.070992
2742.000000	0.070747
2741.000000	0.070506
2740.000000	0.070268
2739.000000	0.070027
2738.000000	0.069785
2737.000000	0.069550
2736.000000	0.069321
2735.000000	0.069081
2734.000000	0.068826
2733.000000	0.068564
2732.000000	0.068302
2731.000000	0.068035
2730.000000	0.067764
2729.000000	0.067499
2728.000000	0.067240
2727.000000	0.066974
2726.000000	0.066694
2725.000000	0.066409
2724.000000	0.066121
2723.000000	0.065826
2722.000000	0.065526
2721.000000	0.065231
2720.000000	0.064941
2719.000000	0.064642
2718.000000	0.064330
2717.000000	0.064013
2716.000000	0.063692
2715.000000	0.063362
2714.000000	0.063024
2713.000000	0.062687
2712.000000	0.062353
2711.000000	0.062014
2710.000000	0.061669
2709.000000	0.061324
2708.000000	0.060977
2707.000000	0.060621
2706.000000	0.060263
2705.000000	0.059918
2704.000000	0.059586
2703.000000	0.059249
2702.000000	0.058905
2701.000000	0.058566
2700.000000	0.058239
2699.000000	0.057914
2698.000000	0.057591
2697.000000	0.057280
2696.000000	0.056982
2695.000000	0.056690
2694.000000	0.056401
2693.000000	0.056122
2692.000000	0.055847
2691.000000	0.055567
2690.000000	0.055284
2689.000000	0.055010
2688.000000	0.054747
2687.000000	0.054485
2686.000000	0.054223
2685.000000	0.053969
2684.000000	0.053723
2683.000000	0.053472
2682.000000	0.053214
2681.000000	0.052964
2680.000000	0.052725
2679.000000	0.052489
2678.000000	0.052255
2677.000000	0.052027
2676.000000	0.051799
2675.000000	0.051560
2674.000000	0.051310
2673.000000	0.051068
2672.000000	0.050837
2671.000000	0.050604
2670.000000	0.050367
2669.000000	0.050133
2668.000000	0.049902
2667.000000	0.049664
2666.000000	0.049420
2665.000000	0.049181
2664.000000	0.048950
2663.000000	0.048720
2662.000000	0.048487
2661.000000	0.048261
2660.000000	0.048037
2659.000000	0.047804
2658.000000	0.047563
2657.000000	0.047324
2656.000000	0.047091
2655.000000	0.046854
2654.000000	0.046618
2653.000000	0.046394
2652.000000	0.046178
2651.000000	0.045952
2650.000000	0.045711
2649.000000	0.045466
2648.000000	0.045222
2647.000000	0.044972
2646.000000	0.044719
2645.000000	0.044472
2644.000000	0.044231
2643.000000	0.043983
2642.000000	0.043724
2641.000000	0.043463
2640.000000	0.043200
2639.000000	0.042926
2638.000000	0.042647
2637.000000	0.042376
2636.000000	0.042110
2635.000000	0.041836
2634.000000	0.041549
2633.000000	0.041261
2632.000000	0.040971
2631.000000	0.040670
2630.000000	0.040361
2629.000000	0.040061
2628.000000	0.039775
2627.000000	0.039492
2626.000000	0.039208
2625.000000	0.038930
2624.000000	0.038653
2623.000000	0.038365
2622.000000	0.038071
2621.000000	0.037788
2620.000000	0.037520
2619.000000	0.037254
2618.000000	0.036987
2617.000000	0.036729
2616.000000	0.036477
2615.000000	0.036217
2614.000000	0.035950
2613.000000	0.035690
2612.000000	0.035445
2611.000000	0.035202
2610.000000	0.034961
2609.000000	0.034728
2608.000000	0.034498
2607.000000	0.034258
2606.000000	0.034009
2605.000000	0.033766
2604.000000	0.033535
2603.000000	0.033308
2602.000000	0.033086
2601.000000	0.032881
2600.000000	0.032683
2599.000000	0.032473
2598.000000	0.032248
2597.000000	0.032025
2596.000000	0.031812
2595.000000	0.031603
2594.000000	0.031402
2593.000000	0.031219
2592.000000	0.031046
2591.000000	0.030863
2590.000000	0.030667
2589.000000	0.030472
2588.000000	0.030282
2587.000000	0.030091
2586.000000	0.029903
2585.000000	0.029733
2584.000000	0.029578
2583.000000	0.029416
2582.000000	0.029240
2581.000000	0.029061
2580.000000	0.028883
2579.000000	0.028699
2578.000000	0.028517
2577.000000	0.028353
2576.000000	0.028205
2575.000000	0.028056
2574.000000	0.027898
2573.000000	0.027740
2572.000000	0.027579
2571.000000	0.027403
2570.000000	0.027217
2569.000000	0.027040
2568.000000	0.026879
2567.000000	0.026721
2566.000000	0.026564
2565.000000	0.026413
2564.000000	0.026260
2563.000000	0.026089
2562.000000	0.025902
2561.000000	0.025721
2560.000000	0.025552
2559.000000	0.025388
2558.000000	0.025228
2557.000000	0.025076
2556.000000	0.024925
2555.000000	0.024755
2554.000000	0.024571
2553.000000	0.024393
2552.000000	0.024229
2551.000000	0.024066
2550.000000	0.023906
2549.000000	0.023759
2548.000000	0.023619
2547.000000	0.023469
2546.000000	0.023307
2545.000000	0.023149
2544.000000	0.023000
2543.000000	0.022848
2542.000000	0.022695
2541.000000	0.022554
2540.000000	0.022420
2539.000000	0.022274
2538.000000	0.022114
2537.000000	0.021952
2536.000000	0.021792
2535.000000	0.021626
2534.000000	0.021460
2533.000000	0.021311
2532.000000	0.021176
2531.000000	0.021034
2530.000000	0.020878
2529.000000	0.020721
2528.000000	0.020564
2527.000000	0.020397
2526.000000	0.020227
2525.000000	0.020073
2524.000000	0.019936
2523.000000	0.019801
2522.000000	0.019660
2521.000000	0.019523
2520.000000	0.019384
2519.000000	0.019234
2518.000000	0.019078
2517.000000	0.018939
2516.000000	0.018818
2515.000000	0.018698
2514.000000	0.018578
2513.000000	0.018470
2512.000000	0.018369
2511.000000	0.018258
2510.000000	0.018136
2509.000000	0.018019
2508.000000	0.017912
2507.000000	0.017804
2506.000000	0.017700
2505.000000	0.017608
2504.000000	0.017523
2503.000000	0.017424
2502.000000	0.017313
2501.000000	0.017208
2500.000000	0.017104
2499.000000	0.016982
2498.000000	0.016845
2497.000000	0.016708
2496.000000	0.016575
2495.000000	0.016430
2494.000000	0.016272
2493.000000	0.016116
2492.000000	0.015964
2491.000000	0.015800
2490.000000	0.015628
2489.000000	0.015465
2488.000000	0.015313
2487.000000	0.015158
2486.000000	0.015005
2485.000000	0.014868
2484.000000	0.014743
2483.000000	0.014608
2482.000000	0.014464
2481.000000	0.014327
2480.000000	0.014195
2479.000000	0.014052
2478.000000	0.013899
2477.000000	0.013758
2476.000000	0.013631
2475.000000	0.013503
2474.000000	0.013373
2473.000000	0.013252
2472.000000	0.013133
2471.000000	0.012998
2470.000000	0.012850
2469.000000	0.012706
2468.000000	0.012571
2467.000000	0.012434
2466.000000	0.012299
2465.000000	0.012179
2464.000000	0.012069
2463.000000	0.011945
2462.000000	0.011807
2461.000000	0.011673
2460.000000	0.011544
2459.000000	0.011410
2458.000000	0.011273
2457.000000	0.011150
2456.000000	0.011039
2455.000000	0.010916
2454.000000	0.010779
2453.000000	0.010643
2452.000000	0.010506
2451.000000	0.010359
2450.000000	0.010206
2449.000000	0.010071
2448.000000	0.009951
2447.000000	0.009825
2446.000000	0.009688
2445.000000	0.009554
2444.000000	0.009422
2443.000000	0.009277
2442.000000	0.009124
2441.000000	0.008984
2440.000000	0.008857
2439.000000	0.008727
2438.000000	0.008593
2437.000000	0.008464
2436.000000	0.008335
2435.000000	0.008186
2434.000000	0.008026
2433.000000	0.007880
2432.000000	0.007752
2431.000000	0.007625
2430.000000	0.007492
2429.000000	0.007363
2428.000000	0.007231
2427.000000	0.007077
2426.000000	0.006908
2425.000000	0.006752
2424.000000	0.006615
2423.000000	0.006484
2422.000000	0.006355
2421.000000	0.006238
2420.000000	0.006123
2419.000000	0.005985
2418.000000	0.005830
2417.000000	0.005681
2416.000000	0.005546
2415.000000	0.005414
2414.000000	0.005289
2413.000000	0.005187
2412.000000	0.005097
2411.000000	0.004989
2410.000000	0.004859
2409.000000	0.004727
2408.000000	0.004602
2407.000000	0.004476
2406.000000	0.004358
2405.000000	0.004264
2404.000000	0.004186
2403.000000	0.004093
2402.000000	0.003981
2401.000000	0.003860
2400.000000	0.003730
2399.000000	0.003577
2398.000000	0.003418
2397.000000	0.003286
2396.000000	0.003180
2395.000000	0.003076
2394.000000	0.002961
2393.000000	0.002846
2392.000000	0.002731
2391.000000	0.002604
2390.000000	0.002478
2389.000000	0.002381
2388.000000	0.002317
2387.000000	0.002268
2386.000000	0.002232
2385.000000	0.002221
2384.000000	0.002223
2383.000000	0.002212
2382.000000	0.002192
2381.000000	0.002183
2380.000000	0.002186
2379.000000	0.002177
2378.000000	0.002148
2377.000000	0.002111
2376.000000	0.002054
2375.000000	0.001952
2374.000000	0.001812
2373.000000	0.001672
2372.000000	0.001543
2371.000000	0.001417
2370.000000	0.001305
2369.000000	0.001238
2368.000000	0.001207
2367.000000	0.001172
2366.000000	0.001128
2365.000000	0.001096
2364.000000	0.001069
2363.000000	0.001024
2362.000000	0.000979
2361.000000	0.000961
2360.000000	0.000954
2359.000000	0.000929
2358.000000	0.000893
2357.000000	0.000879
2356.000000	0.000865
2355.000000	0.000821
2354.000000	0.000757
2353.000000	0.000690
2352.000000	0.000611
2351.000000	0.000503
2350.000000	0.000422
2349.000000	0.000425
2348.000000	0.000478
2347.000000	0.000490
2346.000000	0.000394
2345.000000	0.000248
2344.000000	0.000147
2343.000000	0.000139
2342.000000	0.000208
2341.000000	0.000303
2340.000000	0.000397
2339.000000	0.000451
2338.000000	0.000465
2337.000000	0.000449
2336.000000	0.000409
2335.000000	0.000336
2334.000000	0.000254
2333.000000	0.000187
2332.000000	0.000134
2331.000000	0.000059
2330.000000	-0.000018
2329.000000	-0.000046
2328.000000	-0.000008
2327.000000	0.000073
2326.000000	0.000153
2325.000000	0.000225
2324.000000	0.000259
2323.000000	0.000246
2322.000000	0.000209
2321.000000	0.000179
2320.000000	0.000168
2319.000000	0.000149
2318.000000	0.000148
2317.000000	0.000183
2316.000000	0.000241
2315.000000	0.000272
2314.000000	0.000265
2313.000000	0.000250
2312.000000	0.000240
2311.000000	0.000221
2310.000000	0.000196
2309.000000	0.000188
2308.000000	0.000196
2307.000000	0.000198
2306.000000	0.000196
2305.000000	0.000212
2304.000000	0.000246
2303.000000	0.000272
2302.000000	0.000290
2301.000000	0.000320
2300.000000	0.000359
2299.000000	0.000385
2298.000000	0.000402
2297.000000	0.000434
2296.000000	0.000480
2295.000000	0.000514
2294.000000	0.000532
2293.000000	0.000559
2292.000000	0.000595
2291.000000	0.000623
2290.000000	0.000643
2289.000000	0.000675
2288.000000	0.000717
2287.000000	0.000745
2286.000000	0.000762
2285.000000	0.000791
2284.000000	0.000830
2283.000000	0.000861
2282.000000	0.000886
2281.000000	0.000929
2280.000000	0.000986
2279.000000	0.001029
2278.000000	0.001059
2277.000000	0.001098
2276.000000	0.001148
2275.000000	0.001188
2274.000000	0.001219
2273.000000	0.001266
2272.000000	0.001327
2271.000000	0.001378
2270.000000	0.001421
2269.000000	0.001477
2268.000000	0.001543
2267.000000	0.001592
2266.000000	0.001626
2265.000000	0.001674
2264.000000	0.001738
2263.000000	0.001796
2262.000000	0.001844
2261.000000	0.001906
2260.000000	0.001979
2259.000000	0.002038
2258.000000	0.002082
2257.000000	0.002133
2256.000000	0.002194
2255.000000	0.002246
2254.000000	0.002296
2253.000000	0.002366
2252.000000	0.002451
2251.000000	0.002520
2250.000000	0.002571
2249.000000	0.002629
2248.000000	0.002692
2247.000000	0.002741
2246.000000	0.002784
2245.000000	0.002853
2244.000000	0.002945
2243.000000	0.003031
2242.000000	0.003099
2241.000000	0.003170
2240.000000	0.003241
2239.000000	0.003292
2238.000000	0.003329
2237.000000	0.003384
2236.000000	0.003461
2235.000000	0.003538
2234.000000	0.003611
2233.000000	0.003695
2232.000000	0.003775
2231.000000	0.003817
2230.000000	0.003825
2229.000000	0.003834
2228.000000	0.003852
2227.000000	0.003865
2226.000000	0.003874
2225.000000	0.003902
2224.000000	0.003939
2223.000000	0.003949
2222.000000	0.003930
2221.000000	0.003909
2220.000000	0.003894
2219.000000	0.003871
2218.000000	0.003852
2217.000000	0.003866
2216.000000	0.003903
2215.000000	0.003926
2214.000000	0.003925
2213.000000	0.003923
2212.000000	0.003922
2211.000000	0.003904
2210.000000	0.003881
2209.000000	0.003888
2208.000000	0.003926
2207.000000	0.003966
2206.000000	0.003997
2205.000000	0.004034
2204.000000	0.004065
2203.000000	0.004066
2202.000000	0.004049
2201.000000	0.004055
2200.000000	0.004092
2199.000000	0.004137
2198.000000	0.004184
2197.000000	0.004248
2196.000000	0.004315
2195.000000	0.004348
2194.000000	0.004350
2193.000000	0.004362
2192.000000	0.004397
2191.000000	0.004440
2190.000000	0.004492
2189.000000	0.004572
2188.000000	0.004667
2187.000000	0.004740
2186.000000	0.004787
2185.000000	0.004838
2184.000000	0.004898
2183.000000	0.004950
2182.000000	0.005003
2181.000000	0.005088
2180.000000	0.005199
2179.000000	0.005294
2178.000000	0.005366
2177.000000	0.005439
2176.000000	0.005520
2175.000000	0.005585
2174.000000	0.005643
2173.000000	0.005723
2172.000000	0.005826
2171.000000	0.005925
2170.000000	0.006014
2169.000000	0.006113
2168.000000	0.006210
2167.000000	0.006279
2166.000000	0.006328
2165.000000	0.006395
2164.000000	0.006480
2163.000000	0.006553
2162.000000	0.006615
2161.000000	0.006689
2160.000000	0.006770
2159.000000	0.006825
2158.000000	0.006856
2157.000000	0.006895
2156.000000	0.006945
2155.000000	0.006978
2154.000000	0.007000
2153.000000	0.007040
2152.000000	0.007093
2151.000000	0.007127
2150.000000	0.007140
2149.000000	0.007161
2148.000000	0.007190
2147.000000	0.007199
2146.000000	0.007194
2145.000000	0.007209
2144.000000	0.007244
2143.000000	0.007265
2142.000000	0.007270
2141.000000	0.007283
2140.000000	0.007301
2139.000000	0.007295
2138.000000	0.007268
2137.000000	0.007258
2136.000000	0.007269
2135.000000	0.007273
2134.000000	0.007271
2133.000000	0.007286
2132.000000	0.007310
2131.000000	0.007307
2130.000000	0.007278
2129.000000	0.007259
2128.000000	0.007251
2127.000000	0.007229
2126.000000	0.007199
2125.000000	0.007197
2124.000000	0.007221
2123.000000	0.007232
2122.000000	0.007223
2121.000000	0.007221
2120.000000	0.007222
2119.000000	0.007197
2118.000000	0.007154
2117.000000	0.007134
2116.000000	0.007140
2115.000000	0.007142
2114.000000	0.007134
2113.000000	0.007141
2112.000000	0.007152
2111.000000	0.007132
2110.000000	0.007085
2109.000000	0.007053
2108.000000	0.007048
2107.000000	0.007042
2106.000000	0.007036
2105.000000	0.007050
2104.000000	0.007074
2103.000000	0.007067
2102.000000	0.007030
2101.000000	0.007002
2100.000000	0.006991
2099.000000	0.006971
2098.000000	0.006946
2097.000000	0.006950
2096.000000	0.006976
2095.000000	0.006986
2094.000000	0.006971
2093.000000	0.006961
2092.000000	0.006958
2091.000000	0.006941
2090.000000	0.006922
2089.000000	0.006940
2088.000000	0.006986
2087.000000	0.007015
2086.000000	0.007021
2085.000000	0.007037
2084.000000	0.007063
2083.000000	0.007068
2082.000000	0.007057
2081.000000	0.007069
2080.000000	0.007106
2079.000000	0.007134
2078.000000	0.007150
2077.000000	0.007185
2076.000000	0.007234
2075.000000	0.007262
2074.000000	0.007272
2073.000000	0.007300
2072.000000	0.007346
2071.000000	0.007376
2070.000000	0.007388
2069.000000	0.007412
2068.000000	0.007445
2067.000000	0.007456
2066.000000	0.007460
2065.000000	0.007503
2064.000000	0.007579
2063.000000	0.007636
2062.000000	0.007663
2061.000000	0.007696
2060.000000	0.007739
2059.000000	0.007761
2058.000000	0.007765
2057.000000	0.007790
2056.000000	0.007834
2055.000000	0.007859
2054.000000	0.007865
2053.000000	0.007883
2052.000000	0.007908
2051.000000	0.007903
2050.000000	0.007872
2049.000000	0.007857
2048.000000	0.007862
2047.000000	0.007852
2046.000000	0.007828
2045.000000	0.007818
2044.000000	0.007810
2043.000000	0.007766
2042.000000	0.007699
2041.000000	0.007663
2040.000000	0.007657
2039.000000	0.007633
2038.000000	0.007584
2037.000000	0.007547
2036.000000	0.007520
2035.000000	0.007464
2034.000000	0.007374
2033.000000	0.007290
2032.000000	0.007212
2031.000000	0.007109
2030.000000	0.006990
2029.000000	0.006897
2028.000000	0.006826
2027.000000	0.006727
2026.000000	0.006597
2025.000000	0.006475
2024.000000	0.006365
2023.000000	0.006227
2022.000000	0.006065
2021.000000	0.005921
2020.000000	0.005796
2019.000000	0.005661
2018.000000	0.005530
2017.000000	0.005448
2016.000000	0.005402
2015.000000	0.005330
2014.000000	0.005221
2013.000000	0.005125
2012.000000	0.005048
2011.000000	0.004957
2010.000000	0.004855
2009.000000	0.004782
2008.000000	0.004736
2007.000000	0.004672
2006.000000	0.004591
2005.000000	0.004531
2004.000000	0.004491
2003.000000	0.004428
2002.000000	0.004347
2001.000000	0.004290
2000.000000	0.004252
1999.000000	0.004198
1998.000000	0.004127
1997.000000	0.004079
1996.000000	0.004053
1995.000000	0.004016
1994.000000	0.003973
1993.000000	0.003962
1992.000000	0.003970
1991.000000	0.003942
1990.000000	0.003885
1989.000000	0.003863
1988.000000	0.003887
1987.000000	0.003903
1986.000000	0.003897
1985.000000	0.003907
1984.000000	0.003928
1983.000000	0.003917
1982.000000	0.003884
1981.000000	0.003880
1980.000000	0.003907
1979.000000	0.003917
1978.000000	0.003907
1977.000000	0.003920
1976.000000	0.003953
1975.000000	0.003957
1974.000000	0.003929
1973.000000	0.003919
1972.000000	0.003935
1971.000000	0.003932
1970.000000	0.003901
1969.000000	0.003882
1968.000000	0.003886
1967.000000	0.003892
1966.000000	0.003907
1965.000000	0.003957
1964.000000	0.004019
1963.000000	0.004037
1962.000000	0.004026
1961.000000	0.004054
1960.000000	0.004127
1959.000000	0.004180
1958.000000	0.004193
1957.000000	0.004210
1956.000000	0.004244
1955.000000	0.004267
1954.000000	0.004284
1953.000000	0.004342
1952.000000	0.004432
1951.000000	0.004490
1950.000000	0.004509
1949.000000	0.004532
1948.000000	0.004548
1947.000000	0.004528
1946.000000	0.004525
1945.000000	0.004613
1944.000000	0.004751
1943.000000	0.004838
1942.000000	0.004868
1941.000000	0.004909
1940.000000	0.004978
1939.000000	0.005024
1938.000000	0.005030
1937.000000	0.005047
1936.000000	0.005096
1935.000000	0.005140
1934.000000	0.005173
1933.000000	0.005246
1932.000000	0.005357
1931.000000	0.005442
1930.000000	0.005500
1929.000000	0.005582
1928.000000	0.005690
1927.000000	0.005766
1926.000000	0.005808
1925.000000	0.005871
1924.000000	0.005950
1923.000000	0.006046
1922.000000	0.006259
1921.000000	0.006693
1920.000000	0.007261
1919.000000	0.007681
1918.000000	0.007796
1917.000000	0.007732
1916.000000	0.007674
1915.000000	0.007691
1914.000000	0.007772
1913.000000	0.007897
1912.000000	0.008019
1911.000000	0.008092
1910.000000	0.008158
1909.000000	0.008298
1908.000000	0.008508
1907.000000	0.008695
1906.000000	0.008824
1905.000000	0.008952
1904.000000	0.009082
1903.000000	0.009172
1902.000000	0.009241
1901.000000	0.009347
1900.000000	0.009474
1899.000000	0.009553
1898.000000	0.009587
1897.000000	0.009653
1896.000000	0.009754
1895.000000	0.009847
1894.000000	0.009968
1893.000000	0.010209
1892.000000	0.010539
1891.000000	0.010797
1890.000000	0.010918
1889.000000	0.010999
1888.000000	0.011086
1887.000000	0.011162
1886.000000	0.011263
1885.000000	0.011443
1884.000000	0.011678
1883.000000	0.011895
1882.000000	0.012093
1881.000000	0.012321
1880.000000	0.012566
1879.000000	0.012770
1878.000000	0.012941
1877.000000	0.013163
1876.000000	0.013437
1875.000000	0.013668
1874.000000	0.013872
1873.000000	0.014213
1872.000000	0.014754
1871.000000	0.015295
1870.000000	0.015569
1869.000000	0.015587
1868.000000	0.015558
1867.000000	0.015599
1866.000000	0.015760
1865.000000	0.016060
1864.000000	0.016390
1863.000000	0.016628
1862.000000	0.016804
1861.000000	0.017028
1860.000000	0.017304
1859.000000	0.017553
1858.000000	0.017789
1857.000000	0.018090
1856.000000	0.018435
1855.000000	0.018726
1854.000000	0.018973
1853.000000	0.019254
1852.000000	0.019578
1851.000000	0.019886
1850.000000	0.020150
1849.000000	0.020484
1848.000000	0.021066
1847.000000	0.021981
1846.000000	0.023079
1845.000000	0.023962
1844.000000	0.024307
1843.000000	0.024228
1842.000000	0.024157
1841.000000	0.024394
1840.000000	0.024857
1839.000000	0.025295
1838.000000	0.025689
1837.000000	0.026214
1836.000000	0.026867
1835.000000	0.027508
1834.000000	0.028195
1833.000000	0.029107
1832.000000	0.030167
1831.000000	0.030997
1830.000000	0.031472
1829.000000	0.031916
1828.000000	0.032598
1827.000000	0.033483
1826.000000	0.034359
1825.000000	0.035101
1824.000000	0.035733
1823.000000	0.036316
1822.000000	0.036960
1821.000000	0.037759
1820.000000	0.038668
1819.000000	0.039558
1818.000000	0.040416
1817.000000	0.041343
1816.000000	0.042307
1815.000000	0.043198
1814.000000	0.044051
1813.000000	0.045015
1812.000000	0.046103
1811.000000	0.047166
1810.000000	0.048194
1809.000000	0.049319
1808.000000	0.050545
1807.000000	0.051749
1806.000000	0.052938
1805.000000	0.054261
1804.000000	0.055742
1803.000000	0.057263
1802.000000	0.058759
1801.000000	0.060256
1800.000000	0.061680
1799.000000	0.062890
1798.000000	0.064013
1797.000000	0.065386
1796.000000	0.067189
1795.000000	0.069340
1794.000000	0.071627
1793.000000	0.073839
1792.000000	0.075864
1791.000000	0.077650
1790.000000	0.079304
1789.000000	0.081127
1788.000000	0.083281
1787.000000	0.085674
1786.000000	0.088201
1785.000000	0.090828
1784.000000	0.093435
1783.000000	0.095961
1782.000000	0.098546
1781.000000	0.101413
1780.000000	0.104626
1779.000000	0.108008
1778.000000	0.111489
1777.000000	0.115165
1776.000000	0.119123
1775.000000	0.123454
1774.000000	0.128230
1773.000000	0.133448
1772.000000	0.139002
1771.000000	0.144598
1770.000000	0.150161
1769.000000	0.156048
1768.000000	0.162322
1767.000000	0.168606
1766.000000	0.174787
1765.000000	0.181302
1764.000000	0.188541
1763.000000	0.196396
1762.000000	0.204523
1761.000000	0.212630
1760.000000	0.220503
1759.000000	0.228206
1758.000000	0.236079
1757.000000	0.244222
1756.000000	0.252180
1755.000000	0.259432
1754.000000	0.266193
1753.000000	0.273090
1752.000000	0.280216
1751.000000	0.287002
1750.000000	0.293060
1749.000000	0.298555
1748.000000	0.303597
1747.000000	0.308095
1746.000000	0.312107
1745.000000	0.315883
1744.000000	0.319510
1743.000000	0.322840
1742.000000	0.325823
1741.000000	0.328444
1740.000000	0.330337
1739.000000	0.331285
1738.000000	0.331827
1737.000000	0.332724
1736.000000	0.333928
1735.000000	0.334220
1734.000000	0.332976
1733.000000	0.331152
1732.000000	0.329524
1731.000000	0.328076
1730.000000	0.326665
1729.000000	0.325282
1728.000000	0.323892
1727.000000	0.322413
1726.000000	0.320895
1725.000000	0.319478
1724.000000	0.318143
1723.000000	0.316803
1722.000000	0.315723
1721.000000	0.315207
1720.000000	0.314926
1719.000000	0.313966
1718.000000	0.312250
1717.000000	0.310872
1716.000000	0.310176
1715.000000	0.309530
1714.000000	0.308675
1713.000000	0.307884
1712.000000	0.307343
1711.000000	0.306989
1710.000000	0.306896
1709.000000	0.307297
1708.000000	0.308184
1707.000000	0.309191
1706.000000	0.310185
1705.000000	0.311558
1704.000000	0.313647
1703.000000	0.316753
1702.000000	0.321066
1701.000000	0.325486
1700.000000	0.328412
1699.000000	0.329928
1698.000000	0.331619
1697.000000	0.334975
1696.000000	0.339826
1695.000000	0.344525
1694.000000	0.348307
1693.000000	0.351848
1692.000000	0.355683
1691.000000	0.359793
1690.000000	0.364113
1689.000000	0.368662
1688.000000	0.373386
1687.000000	0.378446
1686.000000	0.384290
1685.000000	0.391070
1684.000000	0.398432
1683.000000	0.405034
1682.000000	0.410195
1681.000000	0.415146
1680.000000	0.420791
1679.000000	0.427073
1678.000000	0.433894
1677.000000	0.441529
1676.000000	0.449803
1675.000000	0.457728
1674.000000	0.464664
1673.000000	0.471203
1672.000000	0.478246
1671.000000	0.485957
1670.000000	0.494170
1669.000000	0.502612
1668.000000	0.510588
1667.000000	0.517611
1666.000000	0.524187
1665.000000	0.531271
1664.000000	0.539046
1663.000000	0.546811
1662.000000	0.553985
1661.000000	0.560584
1660.000000	0.566867
1659.000000	0.572759
1658.000000	0.578243
1657.000000	0.583667
1656.000000	0.589609
1655.000000	0.596083
1654.000000	0.602572
1653.000000	0.608995
1652.000000	0.614091
1651.000000	0.617134
1650.000000	0.619627
1649.000000	0.622758
1648.000000	0.626870
1647.000000	0.631603
1646.000000	0.636116
1645.000000	0.639978
1644.000000	0.643457
1643.000000	0.646730
1642.000000	0.649974
1641.000000	0.653575
1640.000000	0.657604
1639.000000	0.661670
1638.000000	0.665764
1637.000000	0.670450
1636.000000	0.675881
1635.000000	0.680706
1634.000000	0.683715
1633.000000	0.685798
1632.000000	0.688025
1631.000000	0.690393
1630.000000	0.692594
1629.000000	0.694647
1628.000000	0.696601
1627.000000	0.698187
1626.000000	0.699307
1625.000000	0.700264
1624.000000	0.701043
1623.000000	0.701106
1622.000000	0.700271
1621.000000	0.699122
1620.000000	0.698193
1619.000000	0.697153
1618.000000	0.695170
1617.000000	0.691914
1616.000000	0.687784
1615.000000	0.683067
1614.000000	0.677814
1613.000000	0.672154
1612.000000	0.666061
1611.000000	0.659292
1610.000000	0.651806
1609.000000	0.643950
1608.000000	0.635994
1607.000000	0.627829
1606.000000	0.619234
1605.000000	0.610222
1604.000000	0.600934
1603.000000	0.591313
1602.000000	0.581294
1601.000000	0.571065
1600.000000	0.560856
1599.000000	0.550636
1598.000000	0.540217
1597.000000	0.529579
1596.000000	0.518825
1595.000000	0.507935
1594.000000	0.496797
1593.000000	0.485382
1592.000000	0.473744
1591.000000	0.461873
1590.000000	0.449730
1589.000000	0.437416
1588.000000	0.425122
1587.000000	0.412959
1586.000000	0.400945
1585.000000	0.389113
1584.000000	0.377600
1583.000000	0.366511
1582.000000	0.355795
1581.000000	0.345527
1580.000000	0.336054
1579.000000	0.327493
1578.000000	0.319194
1577.000000	0.310129
1576.000000	0.300350
1575.000000	0.291288
1574.000000	0.283976
1573.000000	0.278205
1572.000000	0.273166
1571.000000	0.267852
1570.000000	0.261732
1569.000000	0.255309
1568.000000	0.249500
1567.000000	0.244752
1566.000000	0.240764
1565.000000	0.236967
1564.000000	0.233440
1563.000000	0.231009
1562.000000	0.230273
1561.000000	0.230671
1560.000000	0.229352
1559.000000	0.226096
1558.000000	0.223202
1557.000000	0.220552
1556.000000	0.218503
1555.000000	0.217252
1554.000000	0.216380
1553.000000	0.215580
1552.000000	0.215011
1551.000000	0.214874
1550.000000	0.215086
1549.000000	0.215414
1548.000000	0.215801
1547.000000	0.216472
1546.000000	0.217364
1545.000000	0.218188
1544.000000	0.219030
1543.000000	0.220136
1542.000000	0.221292
1541.000000	0.222110
1540.000000	0.222961
1539.000000	0.223963
1538.000000	0.224856
1537.000000	0.226149
1536.000000	0.228187
1535.000000	0.230855
1534.000000	0.233707
1533.000000	0.236431
1532.000000	0.238936
1531.000000	0.241415
1530.000000	0.244266
1529.000000	0.247489
1528.000000	0.250837
1527.000000	0.254296
1526.000000	0.257903
1525.000000	0.261492
1524.000000	0.265110
1523.000000	0.269159
1522.000000	0.274049
1521.000000	0.279518
1520.000000	0.284611
1519.000000	0.289038
1518.000000	0.293210
1517.000000	0.297248
1516.000000	0.300750
1515.000000	0.303245
1514.000000	0.304692
1513.000000	0.305101
1512.000000	0.304331
1511.000000	0.302630
1510.000000	0.300543
1509.000000	0.298118
1508.000000	0.294627
1507.000000	0.290051
1506.000000	0.284433
1505.000000	0.277709
1504.000000	0.271199
1503.000000	0.265469
1502.000000	0.260245
1501.000000	0.255198
1500.000000	0.250105
1499.000000	0.244810
1498.000000	0.239292
1497.000000	0.233804
1496.000000	0.228676
1495.000000	0.224239
1494.000000	0.220900
1493.000000	0.218785
1492.000000	0.217435
1491.000000	0.216187
1490.000000	0.215183
1489.000000	0.215081
1488.000000	0.215838
1487.000000	0.217007
1486.000000	0.218569
1485.000000	0.220708
1484.000000	0.223488
1483.000000	0.226901
1482.000000	0.231000
1481.000000	0.235857
1480.000000	0.241358
1479.000000	0.247433
1478.000000	0.254209
1477.000000	0.261744
1476.000000	0.269846
1475.000000	0.278547
1474.000000	0.288400
1473.000000	0.299813
1472.000000	0.311970
1471.000000	0.323283
1470.000000	0.333400
1469.000000	0.343065
1468.000000	0.352662
1467.000000	0.362011
1466.000000	0.370717
1465.000000	0.378270
1464.000000	0.384167
1463.000000	0.388433
1462.000000	0.391881
1461.000000	0.395307
1460.000000	0.398972
1459.000000	0.402867
1458.000000	0.407066
1457.000000	0.411338
1456.000000	0.414432
1455.000000	0.415883
1454.000000	0.416678
1453.000000	0.417456
1452.000000	0.418248
1451.000000	0.418968
1450.000000	0.419645
1449.000000	0.420232
1448.000000	0.420552
1447.000000	0.420623
1446.000000	0.420680
1445.000000	0.420924
1444.000000	0.421456
1443.000000	0.422244
1442.000000	0.423257
1441.000000	0.424572
1440.000000	0.426395
1439.000000	0.428900
1438.000000	0.431887
1437.000000	0.434694
1436.000000	0.436704
1435.000000	0.437973
1434.000000	0.439214
1433.000000	0.441025
1432.000000	0.443356
1431.000000	0.445822
1430.000000	0.448185
1429.000000	0.450353
1428.000000	0.452138
1427.000000	0.453514
1426.000000	0.454644
1425.000000	0.455535
1424.000000	0.456142
1423.000000	0.456564
1422.000000	0.457035
1421.000000	0.457488
1420.000000	0.457204
1419.000000	0.455697
1418.000000	0.453458
1417.000000	0.451104
1416.000000	0.448829
1415.000000	0.446643
1414.000000	0.444552
1413.000000	0.442590
1412.000000	0.440778
1411.000000	0.439128
1410.000000	0.437653
1409.000000	0.436351
1408.000000	0.435159
1407.000000	0.434050
1406.000000	0.433047
1405.000000	0.432110
1404.000000	0.431189
1403.000000	0.430365
1402.000000	0.429852
1401.000000	0.429656
1400.000000	0.429512
1399.000000	0.429322
1398.000000	0.429307
1397.000000	0.429705
1396.000000	0.430554
1395.000000	0.431725
1394.000000	0.432973
1393.000000	0.434144
1392.000000	0.435439
1391.000000	0.437221
1390.000000	0.439655
1389.000000	0.442616
1388.000000	0.445825
1387.000000	0.449065
1386.000000	0.452243
1385.000000	0.455357
1384.000000	0.458499
1383.000000	0.461706
1382.000000	0.464899
1381.000000	0.467958
1380.000000	0.470771
1379.000000	0.473277
1378.000000	0.475451
1377.000000	0.477255
1376.000000	0.478656
1375.000000	0.479735
1374.000000	0.480609
1373.000000	0.481154
1372.000000	0.481126
1371.000000	0.480505
1370.000000	0.479412
1369.000000	0.477861
1368.000000	0.475820
1367.000000	0.473374
1366.000000	0.470701
1365.000000	0.467858
1364.000000	0.464765
1363.000000	0.461497
1362.000000	0.458254
1361.000000	0.455038
1360.000000	0.451771
1359.000000	0.448561
1358.000000	0.445607
1357.000000	0.442983
1356.000000	0.440666
1355.000000	0.438688
1354.000000	0.437138
1353.000000	0.436021
1352.000000	0.435257
1351.000000	0.434857
1350.000000	0.434936
1349.000000	0.435550
1348.000000	0.436688
1347.000000	0.438366
1346.000000	0.440626
1345.000000	0.443412
1344.000000	0.446582
1343.000000	0.450057
1342.000000	0.453856
1341.000000	0.458021
1340.000000	0.462574
1339.000000	0.467492
1338.000000	0.472627
1337.000000	0.477758
1336.000000	0.482730
1335.000000	0.487529
1334.000000	0.492218
1333.000000	0.496821
1332.000000	0.501287
1331.000000	0.505588
1330.000000	0.509763
1329.000000	0.513831
1328.000000	0.517776
1327.000000	0.521633
1326.000000	0.525536
1325.000000	0.529607
1324.000000	0.533892
1323.000000	0.538429
1322.000000	0.543279
1321.000000	0.548401
1320.000000	0.553541
1319.000000	0.558284
1318.000000	0.562103
1317.000000	0.564383
1316.000000	0.564514
1315.000000	0.562150
1314.000000	0.557390
1313.000000	0.550634
1312.000000	0.542436
1311.000000	0.533453
1310.000000	0.524324
1309.000000	0.515496
1308.000000	0.507182
1307.000000	0.499524
1306.000000	0.492648
1305.000000	0.486560
1304.000000	0.481154
1303.000000	0.476353
1302.000000	0.472128
1301.000000	0.468407
1300.000000	0.465102
1299.000000	0.462213
1298.000000	0.459840
1297.000000	0.458057
1296.000000	0.456869
1295.000000	0.456291
1294.000000	0.456325
1293.000000	0.456904
1292.000000	0.457929
1291.000000	0.459378
1290.000000	0.461288
1289.000000	0.463630
1288.000000	0.466287
1287.000000	0.469144
1286.000000	0.472113
1285.000000	0.475069
1284.000000	0.477859
1283.000000	0.480391
1282.000000	0.482662
1281.000000	0.484699
1280.000000	0.486546
1279.000000	0.488324
1278.000000	0.490180
1277.000000	0.492148
1276.000000	0.494152
1275.000000	0.496136
1274.000000	0.498109
1273.000000	0.500050
1272.000000	0.501880
1271.000000	0.503556
1270.000000	0.505097
1269.000000	0.506482
1268.000000	0.507627
1267.000000	0.508498
1266.000000	0.509153
1265.000000	0.509629
1264.000000	0.509897
1263.000000	0.509967
1262.000000	0.509915
1261.000000	0.509792
1260.000000	0.509578
1259.000000	0.509284
1258.000000	0.508979
1257.000000	0.508695
1256.000000	0.508406
1255.000000	0.508132
1254.000000	0.507959
1253.000000	0.507928
1252.000000	0.507987
1251.000000	0.508097
1250.000000	0.508264
1249.000000	0.508458
1248.000000	0.508598
1247.000000	0.508640
1246.000000	0.508600
1245.000000	0.508465
1244.000000	0.508183
1243.000000	0.507755
1242.000000	0.507230
1241.000000	0.506589
1240.000000	0.505741
1239.000000	0.504661
1238.000000	0.503418
1237.000000	0.502047
1236.000000	0.500494
1235.000000	0.498713
1234.000000	0.496710
1233.000000	0.494474
1232.000000	0.491950
1231.000000	0.489133
1230.000000	0.486074
1229.000000	0.482793
1228.000000	0.479289
1227.000000	0.475623
1226.000000	0.471893
1225.000000	0.468131
1224.000000	0.464309
1223.000000	0.460460
1222.000000	0.456675
1221.000000	0.452998
1220.000000	0.449415
1219.000000	0.445951
1218.000000	0.442664
1217.000000	0.439562
1216.000000	0.436608
1215.000000	0.433793
1214.000000	0.431145
1213.000000	0.428660
1212.000000	0.426338
1211.000000	0.424238
1210.000000	0.422407
1209.000000	0.420788
1208.000000	0.419277
1207.000000	0.417828
1206.000000	0.416435
1205.000000	0.415034
1204.000000	0.413533
1203.000000	0.411905
1202.000000	0.410173
1201.000000	0.408326
1200.000000	0.406347
1199.000000	0.404288
1198.000000	0.402245
1197.000000	0.400291
1196.000000	0.398511
1195.000000	0.397051
1194.000000	0.396052
1193.000000	0.395560
1192.000000	0.395589
1191.000000	0.396223
1190.000000	0.397546
1189.000000	0.399566
1188.000000	0.402255
1187.000000	0.405619
1186.000000	0.409682
1185.000000	0.414379
1184.000000	0.419661
1183.000000	0.425630
1182.000000	0.432489
1181.000000	0.440355
1180.000000	0.449141
1179.000000	0.458670
1178.000000	0.468836
1177.000000	0.479636
1176.000000	0.491166
1175.000000	0.503574
1174.000000	0.516992
1173.000000	0.531444
1172.000000	0.546835
1171.000000	0.563074
1170.000000	0.580128
1169.000000	0.597915
1168.000000	0.616189
1167.000000	0.634621
1166.000000	0.652892
1165.000000	0.670659
1164.000000	0.687474
1163.000000	0.702897
1162.000000	0.716751
1161.000000	0.728983
1160.000000	0.739527
1159.000000	0.748409
1158.000000	0.755826
1157.000000	0.761997
1156.000000	0.766884
1155.000000	0.770421
1154.000000	0.772806
1153.000000	0.774281
1152.000000	0.774907
1151.000000	0.774700
1150.000000	0.773867
1149.000000	0.772645
1148.000000	0.771021
1147.000000	0.768935
1146.000000	0.766509
1145.000000	0.763899
1144.000000	0.761110
1143.000000	0.758161
1142.000000	0.755275
1141.000000	0.752686
1140.000000	0.750452
1139.000000	0.748650
1138.000000	0.747563
1137.000000	0.747451
1136.000000	0.748337
1135.000000	0.750190
1134.000000	0.753103
1133.000000	0.757163
1132.000000	0.762230
1131.000000	0.768100
1130.000000	0.774731
1129.000000	0.782061
1128.000000	0.789828
1127.000000	0.797764
1126.000000	0.805840
1125.000000	0.814093
1124.000000	0.822348
1123.000000	0.830416
1122.000000	0.838390
1121.000000	0.846462
1120.000000	0.854609
1119.000000	0.862766
1118.000000	0.871120
1117.000000	0.879887
1116.000000	0.888947
1115.000000	0.898017
1114.000000	0.907025
1113.000000	0.915931
1112.000000	0.924414
1111.000000	0.932129
1110.000000	0.939077
1109.000000	0.945364
1108.000000	0.950781
1107.000000	0.955095
1106.000000	0.958501
1105.000000	0.961270
1104.000000	0.963291
1103.000000	0.964385
1102.000000	0.964821
1101.000000	0.965050
1100.000000	0.965176
1099.000000	0.965221
1098.000000	0.965536
1097.000000	0.966507
1096.000000	0.968094
1095.000000	0.970170
1094.000000	0.972978
1093.000000	0.976837
1092.000000	0.981667
1091.000000	0.987252
1090.000000	0.993747
1089.000000	1.001348
1088.000000	1.009780
1087.000000	1.018620
1086.000000	1.027873
1085.000000	1.037687
1084.000000	1.047756
1083.000000	1.057598
1082.000000	1.067178
1081.000000	1.076600
1080.000000	1.085403
1079.000000	1.092889
1078.000000	1.098900
1077.000000	1.103493
1076.000000	1.106329
1075.000000	1.107059
1074.000000	1.106071
1073.000000	1.104086
1072.000000	1.101363
1071.000000	1.098096
1070.000000	1.095043
1069.000000	1.093059
1068.000000	1.092348
1067.000000	1.092846
1066.000000	1.094839
1065.000000	1.098603
1064.000000	1.103779
1063.000000	1.109760
1062.000000	1.116428
1061.000000	1.123783
1060.000000	1.131268
1059.000000	1.138225
1058.000000	1.144695
1057.000000	1.151004
1056.000000	1.156942
1055.000000	1.162126
1054.000000	1.166768
1053.000000	1.171254
1052.000000	1.175284
1051.000000	1.178390
1050.000000	1.180898
1049.000000	1.183422
1048.000000	1.185892
1047.000000	1.187992
1046.000000	1.190039
1045.000000	1.192509
1044.000000	1.195198
1043.000000	1.197769
1042.000000	1.200616
1041.000000	1.204326
1040.000000	1.208715
1039.000000	1.213230
1038.000000	1.217826
1037.000000	1.222573
1036.000000	1.226892
1035.000000	1.230127
1034.000000	1.232420
1033.000000	1.234153
1032.000000	1.235040
1031.000000	1.234704
1030.000000	1.233579
1029.000000	1.232208
1028.000000	1.230324
1027.000000	1.227499
1026.000000	1.224093
1025.000000	1.220632
1024.000000	1.216813
1023.000000	1.212128
1022.000000	1.206809
1021.000000	1.201230
1020.000000	1.195031
1019.000000	1.187719
1018.000000	1.179580
1017.000000	1.171116
1016.000000	1.162117
1015.000000	1.152185
1014.000000	1.141526
1013.000000	1.130534
1012.000000	1.119079
1011.000000	1.106907
1010.000000	1.094319
1009.000000	1.081718
1008.000000	1.069013
1007.000000	1.056010
1006.000000	1.042935
1005.000000	1.030071
1004.000000	1.017253
1003.000000	1.004193
1002.000000	0.990961
1001.000000	0.977710
1000.000000	0.964365
999.000000	0.950886
998.000000	0.937487
997.000000	0.924293
996.000000	0.911037
995.000000	0.897428
994.000000	0.883437
993.000000	0.869021
992.000000	0.853933
991.000000	0.837968
990.000000	0.821200
989.000000	0.803702
988.000000	0.785316
987.000000	0.765947
986.000000	0.745669
985.000000	0.724576
984.000000	0.702685
983.000000	0.680098
982.000000	0.657108
981.000000	0.633952
980.000000	0.610799
979.000000	0.587905
978.000000	0.565559
977.000000	0.543925
976.000000	0.523043
975.000000	0.503015
974.000000	0.483989
973.000000	0.466000
972.000000	0.448992
971.000000	0.432958
970.000000	0.417912
969.000000	0.403776
968.000000	0.390444
967.000000	0.377865
966.000000	0.365994
965.000000	0.354719
964.000000	0.343929
963.000000	0.333610
962.000000	0.323740
961.000000	0.314224
960.000000	0.304998
959.000000	0.296109
958.000000	0.287610
957.000000	0.279453
956.000000	0.271582
955.000000	0.264021
954.000000	0.256791
953.000000	0.249850
952.000000	0.243175
951.000000	0.236829
950.000000	0.230871
949.000000	0.225298
948.000000	0.220173
947.000000	0.215631
946.000000	0.211722
945.000000	0.208345
944.000000	0.205383
943.000000	0.202802
942.000000	0.200524
941.000000	0.198373
940.000000	0.196221
939.000000	0.194070
938.000000	0.191936
937.000000	0.189775
936.000000	0.187569
935.000000	0.185390
934.000000	0.183278
933.000000	0.181201
932.000000	0.179177
931.000000	0.177309
930.000000	0.175633
929.000000	0.174061
928.000000	0.172523
927.000000	0.171036
926.000000	0.169572
925.000000	0.167995
924.000000	0.166210
923.000000	0.164243
922.000000	0.162112
921.000000	0.159750
920.000000	0.157129
919.000000	0.154318
918.000000	0.151357
917.000000	0.148195
916.000000	0.144816
915.000000	0.141283
914.000000	0.137597
913.000000	0.133663
912.000000	0.129455
911.000000	0.125086
910.000000	0.120653
909.000000	0.116165
908.000000	0.111683
907.000000	0.107385
906.000000	0.103404
905.000000	0.099758
904.000000	0.096484
903.000000	0.093680
902.000000	0.091363
901.000000	0.089404
900.000000	0.087686
899.000000	0.086164
898.000000	0.084717
897.000000	0.083134
896.000000	0.081299
895.000000	0.079256
894.000000	0.077035
893.000000	0.074572
892.000000	0.071854
891.000000	0.068979
890.000000	0.065990
889.000000	0.062815
888.000000	0.059433
887.000000	0.055947
886.000000	0.052441
885.000000	0.048923
884.000000	0.045469
883.000000	0.042242
882.000000	0.039302
881.000000	0.036562
880.000000	0.033997
879.000000	0.031720
878.000000	0.029787
877.000000	0.028119
876.000000	0.026680
875.000000	0.025539
874.000000	0.024711
873.000000	0.024068
872.000000	0.023529
871.000000	0.023128
870.000000	0.022872
869.000000	0.022689
868.000000	0.022573
867.000000	0.022606
866.000000	0.022771
865.000000	0.022909
864.000000	0.022916
863.000000	0.022807
862.000000	0.022568
861.000000	0.022107
860.000000	0.021435
859.000000	0.020699
858.000000	0.019977
857.000000	0.019191
856.000000	0.018274
855.000000	0.017265
854.000000	0.016161
853.000000	0.014889
852.000000	0.013453
851.000000	0.011979
850.000000	0.010528
849.000000	0.009049
848.000000	0.007562
847.000000	0.006203
846.000000	0.005046
845.000000	0.004036
844.000000	0.003183
843.000000	0.002621
842.000000	0.002434
841.000000	0.002564
840.000000	0.002961
839.000000	0.003651
838.000000	0.004590
837.000000	0.005632
836.000000	0.006674
835.000000	0.007679
834.000000	0.008509
833.000000	0.008909
832.000000	0.008748
831.000000	0.008112
830.000000	0.007134
829.000000	0.005905
828.000000	0.004616
827.000000	0.003573
826.000000	0.002956
825.000000	0.002704
824.000000	0.002723
823.000000	0.003003
822.000000	0.003485
821.000000	0.004029
820.000000	0.004584
819.000000	0.005228
818.000000	0.005976
817.000000	0.006720
816.000000	0.007413
815.000000	0.008113
814.000000	0.008827
813.000000	0.009474
812.000000	0.010088
811.000000	0.010868
810.000000	0.011971
809.000000	0.013398
808.000000	0.015140
807.000000	0.017254
806.000000	0.019727
805.000000	0.022447
804.000000	0.025358
803.000000	0.028504
802.000000	0.031850
801.000000	0.035226
800.000000	0.038491
799.000000	0.041574
798.000000	0.044334
797.000000	0.046567
796.000000	0.048254
795.000000	0.049653
794.000000	0.051085
793.000000	0.052788
792.000000	0.055025
791.000000	0.058137
790.000000	0.062398
789.000000	0.067950
788.000000	0.074969
787.000000	0.083683
786.000000	0.094136
785.000000	0.105928
784.000000	0.118204
783.000000	0.129682
782.000000	0.138775
781.000000	0.144035
780.000000	0.144833
779.000000	0.141716
778.000000	0.136008
777.000000	0.129204
776.000000	0.122570
775.000000	0.116942
774.000000	0.112600
773.000000	0.109361
772.000000	0.106930
771.000000	0.105101
770.000000	0.103713
769.000000	0.102624
768.000000	0.101817
767.000000	0.101349
766.000000	0.101127
765.000000	0.100875
764.000000	0.100356
763.000000	0.099490
762.000000	0.098186
761.000000	0.096288
760.000000	0.093744
759.000000	0.090686
758.000000	0.087241
757.000000	0.083420
756.000000	0.079265
755.000000	0.074918
754.000000	0.070493
753.000000	0.066016
752.000000	0.061571
751.000000	0.057322
750.000000	0.053336
749.000000	0.049540
748.000000	0.045908
747.000000	0.042523
746.000000	0.039400
745.000000	0.036438
744.000000	0.033617
743.000000	0.031068
742.000000	0.028891
741.000000	0.027047
740.000000	0.025498
739.000000	0.024278
738.000000	0.023382
737.000000	0.022742
736.000000	0.022380
735.000000	0.022420
734.000000	0.022895
733.000000	0.023686
732.000000	0.024715
731.000000	0.026006
730.000000	0.027522
729.000000	0.029125
728.000000	0.030767
727.000000	0.032568
726.000000	0.034624
725.000000	0.036890
724.000000	0.039309
723.000000	0.041899
722.000000	0.044658
721.000000	0.047507
720.000000	0.050404
719.000000	0.053391
718.000000	0.056457
717.000000	0.059508
716.000000	0.062515
715.000000	0.065539
714.000000	0.068541
713.000000	0.071341
712.000000	0.073825
711.000000	0.076054
710.000000	0.078089
709.000000	0.079875
708.000000	0.081373
707.000000	0.082648
706.000000	0.083762
705.000000	0.084700
704.000000	0.085488
703.000000	0.086237
702.000000	0.087015
701.000000	0.087814
700.000000	0.088711
699.000000	0.089884
698.000000	0.091385
697.000000	0.093040
696.000000	0.094645
695.000000	0.096111
694.000000	0.097338
693.000000	0.098155
692.000000	0.098512
691.000000	0.098594
690.000000	0.098625
689.000000	0.098711
688.000000	0.098937
687.000000	0.099433
686.000000	0.100227
685.000000	0.101206
684.000000	0.102340
683.000000	0.103761
682.000000	0.105524
681.000000	0.107504
680.000000	0.109620
679.000000	0.111970
678.000000	0.114610
677.000000	0.117389
676.000000	0.120179
675.000000	0.122968
674.000000	0.125743
673.000000	0.128366
672.000000	0.130646
671.000000	0.132463
670.000000	0.133852
669.000000	0.134982
668.000000	0.136084
667.000000	0.137427
666.000000	0.138990
665.000000	0.140325
664.000000	0.141189
663.000000	0.141686
662.000000	0.141940
661.000000	0.141928
660.000000	0.141649
659.000000	0.141279
658.000000	0.141007
657.000000	0.140884
656.000000	0.140942
655.000000	0.141221
654.000000	0.141710
653.000000	0.142375
652.000000	0.143230
651.000000	0.144313
650.000000	0.145598
649.000000	0.147007
648.000000	0.148541
647.000000	0.150258
646.000000	0.152119
645.000000	0.153959
644.000000	0.155650
643.000000	0.157198
642.000000	0.158649
641.000000	0.160018
640.000000	0.161328
639.000000	0.162634
638.000000	0.163953
637.000000	0.165262
636.000000	0.166570
635.000000	0.167905
634.000000	0.169225
633.000000	0.170453
632.000000	0.171627
631.000000	0.172905
630.000000	0.174384
629.000000	0.176020
628.000000	0.177767
627.000000	0.179665
626.000000	0.181756
625.000000	0.184011
624.000000	0.186397
623.000000	0.188917
622.000000	0.191518
621.000000	0.194060
620.000000	0.196396
619.000000	0.198428
618.000000	0.200076
617.000000	0.201310
616.000000	0.202257
615.000000	0.203142
614.000000	0.204087
613.000000	0.205031
612.000000	0.205865
611.000000	0.206535
610.000000	0.206961
609.000000	0.207016
608.000000	0.206669
607.000000	0.206054
606.000000	0.205340
605.000000	0.204596
604.000000	0.203843
603.000000	0.203133
602.000000	0.202476
601.000000	0.201807
600.000000	0.201139
599.000000	0.200603
598.000000	0.200277
597.000000	0.200095
596.000000	0.199987
595.000000	0.199990
594.000000	0.200127
593.000000	0.200335
592.000000	0.200599
591.000000	0.201046
590.000000	0.201797
589.000000	0.202867
588.000000	0.204248
587.000000	0.205962
586.000000	0.207944
585.000000	0.210023
584.000000	0.212078
583.000000	0.214117
582.000000	0.216141
581.000000	0.218068
580.000000	0.219828
579.000000	0.221408
578.000000	0.222743
577.000000	0.223687
576.000000	0.224169
575.000000	0.224279
574.000000	0.224116
573.000000	0.223689
572.000000	0.223000
571.000000	0.222140
570.000000	0.221200
569.000000	0.220214
568.000000	0.219271
567.000000	0.218555
566.000000	0.218168
565.000000	0.218041
564.000000	0.218112
563.000000	0.218417
562.000000	0.218886
561.000000	0.219245
560.000000	0.219252
559.000000	0.218936
558.000000	0.218458
557.000000	0.217897
556.000000	0.217303
555.000000	0.216804
554.000000	0.216507
553.000000	0.216395
552.000000	0.216448
551.000000	0.216743
550.000000	0.217322
549.000000	0.218141
548.000000	0.219250
547.000000	0.220842
546.000000	0.222995
545.000000	0.225522
544.000000	0.228251
543.000000	0.231268
542.000000	0.234724
541.000000	0.238610
540.000000	0.242793
539.000000	0.247148
538.000000	0.251520
537.000000	0.255681
536.000000	0.259432
535.000000	0.262664
534.000000	0.265279
533.000000	0.267205
532.000000	0.268500
531.000000	0.269339
530.000000	0.269863
529.000000	0.270077
528.000000	0.269954
527.000000	0.269560
526.000000	0.269002
525.000000	0.268343
524.000000	0.267614
523.000000	0.266863
522.000000	0.266082
521.000000	0.265104
520.000000	0.263729
519.000000	0.261861
518.000000	0.259496
517.000000	0.256659
516.000000	0.253436
515.000000	0.249957
514.000000	0.246249
513.000000	0.242172
512.000000	0.237652
511.000000	0.232863
510.000000	0.228022
509.000000	0.223129
508.000000	0.218132
507.000000	0.213214
506.000000	0.208618
505.000000	0.204293
504.000000	0.200010
503.000000	0.195807
502.000000	0.192072
501.000000	0.189127
500.000000	0.186938
499.000000	0.185228
498.000000	0.183687
497.000000	0.182145
496.000000	0.180719
495.000000	0.179665
494.000000	0.179044
493.000000	0.178712
492.000000	0.178658
491.000000	0.179068
490.000000	0.179989
489.000000	0.181236
488.000000	0.182720
487.000000	0.184528
486.000000	0.186612
485.000000	0.188768
484.000000	0.191025
483.000000	0.193652
482.000000	0.196609
481.000000	0.199417
480.000000	0.201719
479.000000	0.203601
478.000000	0.205185
477.000000	0.206316
476.000000	0.206872
475.000000	0.206998
474.000000	0.206873
473.000000	0.206451
472.000000	0.205651
471.000000	0.204443
470.000000	0.202715
469.000000	0.200311
468.000000	0.197205
467.000000	0.193571
466.000000	0.189528
465.000000	0.185076
464.000000	0.180377
463.000000	0.175795
462.000000	0.171504
461.000000	0.167310
460.000000	0.163002
459.000000	0.158554
458.000000	0.153906
457.000000	0.148963
456.000000	0.143924
455.000000	0.139314
454.000000	0.135236
453.000000	0.131148
452.000000	0.126801
451.000000	0.122664
450.000000	0.119117
449.000000	0.115874
448.000000	0.112683
447.000000	0.109881
446.000000	0.107665
445.000000	0.105546
444.000000	0.103068
443.000000	0.100499
442.000000	0.098257
441.000000	0.096206
440.000000	0.094198
439.000000	0.092575
438.000000	0.091461
437.000000	0.090270
436.000000	0.088503
435.000000	0.086438
434.000000	0.084441
433.000000	0.082321
432.000000	0.079931
431.000000	0.077624
430.000000	0.075493
429.000000	0.072983
428.000000	0.069882
427.000000	0.066925
426.000000	0.064634
425.000000	0.062414
424.000000	0.059627
423.000000	0.056737
422.000000	0.054383
421.000000	0.052159
420.000000	0.049240
419.000000	0.045961
418.000000	0.043054
417.000000	0.039630
416.000000	0.035379
415.000000	0.031459
414.000000	0.028394
413.000000	0.025260
412.000000	0.021314
411.000000	0.017204
410.000000	0.013540
409.000000	0.009798
408.000000	0.005758
407.000000	0.002542
406.000000	0.000785
405.000000	-0.000491
404.000000	-0.001589
403.000000	-0.000985
402.000000	0.002002
401.000000	0.005476
400.000000	0.007702
