PE IR       SUBTECH     SPECTRUM    ASCII       PEDS        4.00        
   -1
G001-80C.asc
17/02/23
10:54:41.00
17/02/23
10:55:13.00
Administrator
Sample 125 By Administrator Date Thursday, February 23 2017
400.000000
#HDR
-1
-1
#GR
cm-1
A
1.0
0.0
4000.000000
-1.000000
3601
8
1.237092
-0.000853
#DATA
4000.000000	0.005758
3999.000000	0.005893
3998.000000	0.006037
3997.000000	0.006189
3996.000000	0.006343
3995.000000	0.006497
3994.000000	0.006651
3993.000000	0.006809
3992.000000	0.006969
3991.000000	0.007125
3990.000000	0.007265
3989.000000	0.007388
3988.000000	0.007504
3987.000000	0.007624
3986.000000	0.007756
3985.000000	0.007896
3984.000000	0.008034
3983.000000	0.008161
3982.000000	0.008277
3981.000000	0.008392
3980.000000	0.008522
3979.000000	0.008677
3978.000000	0.008858
3977.000000	0.009052
3976.000000	0.009240
3975.000000	0.009406
3974.000000	0.009546
3973.000000	0.009668
3972.000000	0.009784
3971.000000	0.009898
3970.000000	0.010009
3969.000000	0.010113
3968.000000	0.010213
3967.000000	0.010320
3966.000000	0.010450
3965.000000	0.010615
3964.000000	0.010807
3963.000000	0.011004
3962.000000	0.011184
3961.000000	0.011338
3960.000000	0.011470
3959.000000	0.011593
3958.000000	0.011714
3957.000000	0.011835
3956.000000	0.011961
3955.000000	0.012101
3954.000000	0.012267
3953.000000	0.012472
3952.000000	0.012724
3951.000000	0.013010
3950.000000	0.013302
3949.000000	0.013567
3948.000000	0.013791
3947.000000	0.013990
3946.000000	0.014186
3945.000000	0.014379
3944.000000	0.014537
3943.000000	0.014627
3942.000000	0.014653
3941.000000	0.014647
3940.000000	0.014641
3939.000000	0.014655
3938.000000	0.014708
3937.000000	0.014836
3936.000000	0.015075
3935.000000	0.015426
3934.000000	0.015829
3933.000000	0.016195
3932.000000	0.016453
3931.000000	0.016593
3930.000000	0.016665
3929.000000	0.016737
3928.000000	0.016843
3927.000000	0.016978
3926.000000	0.017122
3925.000000	0.017265
3924.000000	0.017416
3923.000000	0.017603
3922.000000	0.017846
3921.000000	0.018136
3920.000000	0.018433
3919.000000	0.018689
3918.000000	0.018864
3917.000000	0.018937
3916.000000	0.018905
3915.000000	0.018796
3914.000000	0.018657
3913.000000	0.018530
3912.000000	0.018446
3911.000000	0.018453
3910.000000	0.018618
3909.000000	0.018996
3908.000000	0.019587
3907.000000	0.020332
3906.000000	0.021145
3905.000000	0.021962
3904.000000	0.022750
3903.000000	0.023469
3902.000000	0.024034
3901.000000	0.024340
3900.000000	0.024321
3899.000000	0.024018
3898.000000	0.023587
3897.000000	0.023214
3896.000000	0.023021
3895.000000	0.023013
3894.000000	0.023103
3893.000000	0.023195
3892.000000	0.023282
3891.000000	0.023436
3890.000000	0.023727
3889.000000	0.024159
3888.000000	0.024652
3887.000000	0.025089
3886.000000	0.025434
3885.000000	0.025754
3884.000000	0.026121
3883.000000	0.026497
3882.000000	0.026737
3881.000000	0.026732
3880.000000	0.026547
3879.000000	0.026376
3878.000000	0.026381
3877.000000	0.026577
3876.000000	0.026876
3875.000000	0.027213
3874.000000	0.027606
3873.000000	0.028085
3872.000000	0.028612
3871.000000	0.029101
3870.000000	0.029507
3869.000000	0.029856
3868.000000	0.030196
3867.000000	0.030527
3866.000000	0.030773
3865.000000	0.030836
3864.000000	0.030728
3863.000000	0.030559
3862.000000	0.030453
3861.000000	0.030482
3860.000000	0.030686
3859.000000	0.031102
3858.000000	0.031757
3857.000000	0.032601
3856.000000	0.033455
3855.000000	0.034111
3854.000000	0.034633
3853.000000	0.035206
3852.000000	0.035698
3851.000000	0.035853
3850.000000	0.035626
3849.000000	0.035147
3848.000000	0.034606
3847.000000	0.034190
3846.000000	0.034021
3845.000000	0.034135
3844.000000	0.034522
3843.000000	0.035133
3842.000000	0.035878
3841.000000	0.036643
3840.000000	0.037315
3839.000000	0.037861
3838.000000	0.038339
3837.000000	0.038796
3836.000000	0.039179
3835.000000	0.039389
3834.000000	0.039374
3833.000000	0.039175
3832.000000	0.038909
3831.000000	0.038720
3830.000000	0.038695
3829.000000	0.038813
3828.000000	0.039017
3827.000000	0.039306
3826.000000	0.039748
3825.000000	0.040392
3824.000000	0.041173
3823.000000	0.041913
3822.000000	0.042507
3821.000000	0.043030
3820.000000	0.043570
3819.000000	0.044092
3818.000000	0.044467
3817.000000	0.044589
3816.000000	0.044505
3815.000000	0.044382
3814.000000	0.044355
3813.000000	0.044455
3812.000000	0.044645
3811.000000	0.044879
3810.000000	0.045128
3809.000000	0.045389
3808.000000	0.045734
3807.000000	0.046293
3806.000000	0.047118
3805.000000	0.048097
3804.000000	0.049012
3803.000000	0.049662
3802.000000	0.050058
3801.000000	0.050411
3800.000000	0.050856
3799.000000	0.051323
3798.000000	0.051634
3797.000000	0.051673
3796.000000	0.051500
3795.000000	0.051301
3794.000000	0.051235
3793.000000	0.051336
3792.000000	0.051542
3791.000000	0.051803
3790.000000	0.052126
3789.000000	0.052540
3788.000000	0.053036
3787.000000	0.053568
3786.000000	0.054109
3785.000000	0.054673
3784.000000	0.055294
3783.000000	0.055980
3782.000000	0.056687
3781.000000	0.057323
3780.000000	0.057823
3779.000000	0.058221
3778.000000	0.058599
3777.000000	0.059014
3776.000000	0.059484
3775.000000	0.060014
3774.000000	0.060610
3773.000000	0.061262
3772.000000	0.061942
3771.000000	0.062637
3770.000000	0.063373
3769.000000	0.064170
3768.000000	0.064980
3767.000000	0.065718
3766.000000	0.066337
3765.000000	0.066865
3764.000000	0.067385
3763.000000	0.067977
3762.000000	0.068657
3761.000000	0.069364
3760.000000	0.070047
3759.000000	0.070749
3758.000000	0.071553
3757.000000	0.072483
3756.000000	0.073506
3755.000000	0.074592
3754.000000	0.075708
3753.000000	0.076795
3752.000000	0.077838
3751.000000	0.078968
3750.000000	0.080310
3749.000000	0.081770
3748.000000	0.083129
3747.000000	0.084214
3746.000000	0.084947
3745.000000	0.085449
3744.000000	0.085956
3743.000000	0.086540
3742.000000	0.087137
3741.000000	0.087699
3740.000000	0.088225
3739.000000	0.088802
3738.000000	0.089587
3737.000000	0.090679
3736.000000	0.091968
3735.000000	0.093163
3734.000000	0.094045
3733.000000	0.094603
3732.000000	0.094968
3731.000000	0.095298
3730.000000	0.095730
3729.000000	0.096338
3728.000000	0.097118
3727.000000	0.098026
3726.000000	0.099030
3725.000000	0.100115
3724.000000	0.101243
3723.000000	0.102344
3722.000000	0.103381
3721.000000	0.104378
3720.000000	0.105380
3719.000000	0.106448
3718.000000	0.107649
3717.000000	0.109022
3716.000000	0.110575
3715.000000	0.112302
3714.000000	0.114194
3713.000000	0.116228
3712.000000	0.118366
3711.000000	0.120558
3710.000000	0.122716
3709.000000	0.124747
3708.000000	0.126613
3707.000000	0.128362
3706.000000	0.130113
3705.000000	0.131981
3704.000000	0.134017
3703.000000	0.136223
3702.000000	0.138583
3701.000000	0.141034
3700.000000	0.143446
3699.000000	0.145696
3698.000000	0.147728
3697.000000	0.149543
3696.000000	0.151184
3695.000000	0.152752
3694.000000	0.154353
3693.000000	0.156025
3692.000000	0.157728
3691.000000	0.159449
3690.000000	0.161292
3689.000000	0.163378
3688.000000	0.165625
3687.000000	0.167796
3686.000000	0.169766
3685.000000	0.171590
3684.000000	0.173400
3683.000000	0.175365
3682.000000	0.177656
3681.000000	0.180365
3680.000000	0.183458
3679.000000	0.186853
3678.000000	0.190567
3677.000000	0.194706
3676.000000	0.199289
3675.000000	0.204052
3674.000000	0.208619
3673.000000	0.212860
3672.000000	0.216886
3671.000000	0.220827
3670.000000	0.224766
3669.000000	0.228722
3668.000000	0.232629
3667.000000	0.236406
3666.000000	0.240039
3665.000000	0.243608
3664.000000	0.247269
3663.000000	0.251200
3662.000000	0.255483
3661.000000	0.260045
3660.000000	0.264738
3659.000000	0.269502
3658.000000	0.274411
3657.000000	0.279540
3656.000000	0.284811
3655.000000	0.290042
3654.000000	0.295150
3653.000000	0.300203
3652.000000	0.305310
3651.000000	0.310585
3650.000000	0.316142
3649.000000	0.321939
3648.000000	0.327624
3647.000000	0.332749
3646.000000	0.337153
3645.000000	0.341001
3644.000000	0.344588
3643.000000	0.348187
3642.000000	0.351992
3641.000000	0.356091
3640.000000	0.360478
3639.000000	0.365102
3638.000000	0.369910
3637.000000	0.374867
3636.000000	0.379952
3635.000000	0.385128
3634.000000	0.390313
3633.000000	0.395440
3632.000000	0.400597
3631.000000	0.406040
3630.000000	0.412026
3629.000000	0.418456
3628.000000	0.424786
3627.000000	0.430490
3626.000000	0.435436
3625.000000	0.439749
3624.000000	0.443610
3623.000000	0.447241
3622.000000	0.450886
3621.000000	0.454700
3620.000000	0.458683
3619.000000	0.462750
3618.000000	0.466800
3617.000000	0.470747
3616.000000	0.474548
3615.000000	0.478246
3614.000000	0.481938
3613.000000	0.485702
3612.000000	0.489585
3611.000000	0.493647
3610.000000	0.497936
3609.000000	0.502377
3608.000000	0.506779
3607.000000	0.511004
3606.000000	0.515049
3605.000000	0.518958
3604.000000	0.522775
3603.000000	0.526603
3602.000000	0.530585
3601.000000	0.534774
3600.000000	0.539084
3599.000000	0.543414
3598.000000	0.547753
3597.000000	0.552135
3596.000000	0.556575
3595.000000	0.561078
3594.000000	0.565614
3593.000000	0.570101
3592.000000	0.574474
3591.000000	0.578823
3590.000000	0.583382
3589.000000	0.588325
3588.000000	0.593593
3587.000000	0.598907
3586.000000	0.603938
3585.000000	0.608466
3584.000000	0.612478
3583.000000	0.616172
3582.000000	0.619826
3581.000000	0.623612
3580.000000	0.627557
3579.000000	0.631658
3578.000000	0.635927
3577.000000	0.640321
3576.000000	0.644750
3575.000000	0.649189
3574.000000	0.653686
3573.000000	0.658260
3572.000000	0.662885
3571.000000	0.667586
3570.000000	0.672453
3569.000000	0.677514
3568.000000	0.682670
3567.000000	0.687759
3566.000000	0.692632
3565.000000	0.697174
3564.000000	0.701362
3563.000000	0.705319
3562.000000	0.709215
3561.000000	0.713124
3560.000000	0.717026
3559.000000	0.720934
3558.000000	0.724915
3557.000000	0.728984
3556.000000	0.733114
3555.000000	0.737335
3554.000000	0.741707
3553.000000	0.746172
3552.000000	0.750567
3551.000000	0.754822
3550.000000	0.759045
3549.000000	0.763394
3548.000000	0.767956
3547.000000	0.772705
3546.000000	0.777476
3545.000000	0.781985
3544.000000	0.786015
3543.000000	0.789611
3542.000000	0.792988
3541.000000	0.796334
3540.000000	0.799774
3539.000000	0.803443
3538.000000	0.807407
3537.000000	0.811512
3536.000000	0.815490
3535.000000	0.819233
3534.000000	0.822843
3533.000000	0.826444
3532.000000	0.830082
3531.000000	0.833803
3530.000000	0.837660
3529.000000	0.841614
3528.000000	0.845582
3527.000000	0.849572
3526.000000	0.853643
3525.000000	0.857716
3524.000000	0.861584
3523.000000	0.865133
3522.000000	0.868426
3521.000000	0.871587
3520.000000	0.874717
3519.000000	0.877922
3518.000000	0.881275
3517.000000	0.884743
3516.000000	0.888244
3515.000000	0.891751
3514.000000	0.895243
3513.000000	0.898625
3512.000000	0.901828
3511.000000	0.904956
3510.000000	0.908167
3509.000000	0.911456
3508.000000	0.914711
3507.000000	0.917933
3506.000000	0.921241
3505.000000	0.924668
3504.000000	0.928103
3503.000000	0.931420
3502.000000	0.934543
3501.000000	0.937420
3500.000000	0.940084
3499.000000	0.942700
3498.000000	0.945406
3497.000000	0.948148
3496.000000	0.950793
3495.000000	0.953336
3494.000000	0.955870
3493.000000	0.958408
3492.000000	0.960915
3491.000000	0.963444
3490.000000	0.966083
3489.000000	0.968797
3488.000000	0.971464
3487.000000	0.974035
3486.000000	0.976525
3485.000000	0.978919
3484.000000	0.981246
3483.000000	0.983663
3482.000000	0.986290
3481.000000	0.988998
3480.000000	0.991540
3479.000000	0.993823
3478.000000	0.995930
3477.000000	0.997939
3476.000000	0.999898
3475.000000	1.001908
3474.000000	1.004071
3473.000000	1.006380
3472.000000	1.008804
3471.000000	1.011381
3470.000000	1.014087
3469.000000	1.016699
3468.000000	1.018968
3467.000000	1.020872
3466.000000	1.022561
3465.000000	1.024156
3464.000000	1.025755
3463.000000	1.027525
3462.000000	1.029549
3461.000000	1.031659
3460.000000	1.033604
3459.000000	1.035330
3458.000000	1.036953
3457.000000	1.038539
3456.000000	1.040102
3455.000000	1.041722
3454.000000	1.043473
3453.000000	1.045287
3452.000000	1.047044
3451.000000	1.048756
3450.000000	1.050493
3449.000000	1.052220
3448.000000	1.053849
3447.000000	1.055393
3446.000000	1.056898
3445.000000	1.058314
3444.000000	1.059590
3443.000000	1.060806
3442.000000	1.062079
3441.000000	1.063422
3440.000000	1.064825
3439.000000	1.066363
3438.000000	1.068052
3437.000000	1.069682
3436.000000	1.070987
3435.000000	1.071917
3434.000000	1.072610
3433.000000	1.073202
3432.000000	1.073796
3431.000000	1.074483
3430.000000	1.075238
3429.000000	1.075870
3428.000000	1.076250
3427.000000	1.076495
3426.000000	1.076802
3425.000000	1.077215
3424.000000	1.077689
3423.000000	1.078237
3422.000000	1.078856
3421.000000	1.079412
3420.000000	1.079782
3419.000000	1.080025
3418.000000	1.080270
3417.000000	1.080550
3416.000000	1.080863
3415.000000	1.081266
3414.000000	1.081755
3413.000000	1.082177
3412.000000	1.082408
3411.000000	1.082521
3410.000000	1.082618
3409.000000	1.082649
3408.000000	1.082534
3407.000000	1.082363
3406.000000	1.082314
3405.000000	1.082481
3404.000000	1.082901
3403.000000	1.083584
3402.000000	1.084362
3401.000000	1.084853
3400.000000	1.084772
3399.000000	1.084229
3398.000000	1.083558
3397.000000	1.083008
3396.000000	1.082703
3395.000000	1.082741
3394.000000	1.083102
3393.000000	1.083530
3392.000000	1.083693
3391.000000	1.083454
3390.000000	1.082888
3389.000000	1.082148
3388.000000	1.081433
3387.000000	1.080942
3386.000000	1.080732
3385.000000	1.080664
3384.000000	1.080604
3383.000000	1.080561
3382.000000	1.080550
3381.000000	1.080477
3380.000000	1.080276
3379.000000	1.080034
3378.000000	1.079843
3377.000000	1.079646
3376.000000	1.079362
3375.000000	1.079044
3374.000000	1.078806
3373.000000	1.078687
3372.000000	1.078685
3371.000000	1.078798
3370.000000	1.078914
3369.000000	1.078799
3368.000000	1.078318
3367.000000	1.077575
3366.000000	1.076740
3365.000000	1.075883
3364.000000	1.075048
3363.000000	1.074338
3362.000000	1.073774
3361.000000	1.073206
3360.000000	1.072498
3359.000000	1.071694
3358.000000	1.070892
3357.000000	1.070071
3356.000000	1.069191
3355.000000	1.068321
3354.000000	1.067558
3353.000000	1.066872
3352.000000	1.066147
3351.000000	1.065282
3350.000000	1.064192
3349.000000	1.062832
3348.000000	1.061302
3347.000000	1.059815
3346.000000	1.058473
3345.000000	1.057178
3344.000000	1.055816
3343.000000	1.054403
3342.000000	1.052974
3341.000000	1.051482
3340.000000	1.049893
3339.000000	1.048246
3338.000000	1.046534
3337.000000	1.044655
3336.000000	1.042582
3335.000000	1.040445
3334.000000	1.038354
3333.000000	1.036271
3332.000000	1.034142
3331.000000	1.032016
3330.000000	1.029947
3329.000000	1.027905
3328.000000	1.025863
3327.000000	1.023848
3326.000000	1.021833
3325.000000	1.019698
3324.000000	1.017399
3323.000000	1.015044
3322.000000	1.012733
3321.000000	1.010441
3320.000000	1.008138
3319.000000	1.005874
3318.000000	1.003686
3317.000000	1.001510
3316.000000	0.999293
3315.000000	0.997079
3314.000000	0.994909
3313.000000	0.992741
3312.000000	0.990549
3311.000000	0.988383
3310.000000	0.986269
3309.000000	0.984141
3308.000000	0.981949
3307.000000	0.979719
3306.000000	0.977446
3305.000000	0.975058
3304.000000	0.972539
3303.000000	0.969994
3302.000000	0.967509
3301.000000	0.965059
3300.000000	0.962615
3299.000000	0.960214
3298.000000	0.957874
3297.000000	0.955526
3296.000000	0.953123
3295.000000	0.950703
3294.000000	0.948293
3293.000000	0.945839
3292.000000	0.943294
3291.000000	0.940698
3290.000000	0.938091
3289.000000	0.935450
3288.000000	0.932770
3287.000000	0.930102
3286.000000	0.927465
3285.000000	0.924807
3284.000000	0.922093
3283.000000	0.919362
3282.000000	0.916633
3281.000000	0.913865
3280.000000	0.911044
3279.000000	0.908230
3278.000000	0.905456
3277.000000	0.902669
3276.000000	0.899826
3275.000000	0.896962
3274.000000	0.894112
3273.000000	0.891255
3272.000000	0.888357
3271.000000	0.885423
3270.000000	0.882450
3269.000000	0.879409
3268.000000	0.876317
3267.000000	0.873239
3266.000000	0.870196
3265.000000	0.867146
3264.000000	0.864073
3263.000000	0.861025
3262.000000	0.858025
3261.000000	0.855031
3260.000000	0.852018
3259.000000	0.849015
3258.000000	0.846028
3257.000000	0.843004
3256.000000	0.839915
3255.000000	0.836801
3254.000000	0.833696
3253.000000	0.830585
3252.000000	0.827457
3251.000000	0.824345
3250.000000	0.821267
3249.000000	0.818188
3248.000000	0.815084
3247.000000	0.811974
3246.000000	0.808860
3245.000000	0.805712
3244.000000	0.802519
3243.000000	0.799317
3242.000000	0.796125
3241.000000	0.792918
3240.000000	0.789687
3239.000000	0.786459
3238.000000	0.783243
3237.000000	0.780008
3236.000000	0.776746
3235.000000	0.773483
3234.000000	0.770228
3233.000000	0.766946
3232.000000	0.763624
3231.000000	0.760291
3230.000000	0.756960
3229.000000	0.753608
3228.000000	0.750230
3227.000000	0.746850
3226.000000	0.743479
3225.000000	0.740092
3224.000000	0.736679
3223.000000	0.733261
3222.000000	0.729842
3221.000000	0.726398
3220.000000	0.722930
3219.000000	0.719475
3218.000000	0.716042
3217.000000	0.712597
3216.000000	0.709116
3215.000000	0.705610
3214.000000	0.702091
3213.000000	0.698553
3212.000000	0.695005
3211.000000	0.691470
3210.000000	0.687943
3209.000000	0.684402
3208.000000	0.680847
3207.000000	0.677309
3206.000000	0.673790
3205.000000	0.670258
3204.000000	0.666700
3203.000000	0.663138
3202.000000	0.659584
3201.000000	0.656026
3200.000000	0.652461
3199.000000	0.648906
3198.000000	0.645363
3197.000000	0.641807
3196.000000	0.638230
3195.000000	0.634652
3194.000000	0.631085
3193.000000	0.627522
3192.000000	0.623963
3191.000000	0.620423
3190.000000	0.616903
3189.000000	0.613385
3188.000000	0.609868
3187.000000	0.606368
3186.000000	0.602887
3185.000000	0.599403
3184.000000	0.595912
3183.000000	0.592432
3182.000000	0.588971
3181.000000	0.585515
3180.000000	0.582056
3179.000000	0.578604
3178.000000	0.575165
3177.000000	0.571728
3176.000000	0.568293
3175.000000	0.564873
3174.000000	0.561475
3173.000000	0.558091
3172.000000	0.554720
3171.000000	0.551364
3170.000000	0.548020
3169.000000	0.544679
3168.000000	0.541349
3167.000000	0.538048
3166.000000	0.534775
3165.000000	0.531511
3164.000000	0.528249
3163.000000	0.525002
3162.000000	0.521777
3161.000000	0.518566
3160.000000	0.515365
3159.000000	0.512181
3158.000000	0.509019
3157.000000	0.505879
3156.000000	0.502770
3155.000000	0.499701
3154.000000	0.496659
3153.000000	0.493609
3152.000000	0.490528
3151.000000	0.487427
3150.000000	0.484327
3149.000000	0.481247
3148.000000	0.478201
3147.000000	0.475197
3146.000000	0.472229
3145.000000	0.469280
3144.000000	0.466342
3143.000000	0.463426
3142.000000	0.460542
3141.000000	0.457686
3140.000000	0.454846
3139.000000	0.452009
3138.000000	0.449166
3137.000000	0.446325
3136.000000	0.443501
3135.000000	0.440707
3134.000000	0.437939
3133.000000	0.435190
3132.000000	0.432464
3131.000000	0.429772
3130.000000	0.427109
3129.000000	0.424459
3128.000000	0.421816
3127.000000	0.419189
3126.000000	0.416587
3125.000000	0.414011
3124.000000	0.411466
3123.000000	0.408959
3122.000000	0.406490
3121.000000	0.404046
3120.000000	0.401613
3119.000000	0.399181
3118.000000	0.396750
3117.000000	0.394319
3116.000000	0.391887
3115.000000	0.389458
3114.000000	0.387044
3113.000000	0.384663
3112.000000	0.382333
3111.000000	0.380061
3110.000000	0.377831
3109.000000	0.375617
3108.000000	0.373399
3107.000000	0.371185
3106.000000	0.368996
3105.000000	0.366852
3104.000000	0.364756
3103.000000	0.362695
3102.000000	0.360653
3101.000000	0.358623
3100.000000	0.356604
3099.000000	0.354600
3098.000000	0.352611
3097.000000	0.350639
3096.000000	0.348687
3095.000000	0.346760
3094.000000	0.344861
3093.000000	0.342994
3092.000000	0.341156
3091.000000	0.339338
3090.000000	0.337526
3089.000000	0.335720
3088.000000	0.333934
3087.000000	0.332183
3086.000000	0.330469
3085.000000	0.328784
3084.000000	0.327115
3083.000000	0.325454
3082.000000	0.323798
3081.000000	0.322154
3080.000000	0.320525
3079.000000	0.318908
3078.000000	0.317290
3077.000000	0.315668
3076.000000	0.314049
3075.000000	0.312446
3074.000000	0.310871
3073.000000	0.309329
3072.000000	0.307816
3071.000000	0.306324
3070.000000	0.304848
3069.000000	0.303383
3068.000000	0.301918
3067.000000	0.300433
3066.000000	0.298912
3065.000000	0.297351
3064.000000	0.295760
3063.000000	0.294149
3062.000000	0.292524
3061.000000	0.290893
3060.000000	0.289261
3059.000000	0.287631
3058.000000	0.285999
3057.000000	0.284363
3056.000000	0.282720
3055.000000	0.281074
3054.000000	0.279436
3053.000000	0.277822
3052.000000	0.276242
3051.000000	0.274693
3050.000000	0.273164
3049.000000	0.271645
3048.000000	0.270136
3047.000000	0.268643
3046.000000	0.267173
3045.000000	0.265736
3044.000000	0.264332
3043.000000	0.262955
3042.000000	0.261600
3041.000000	0.260267
3040.000000	0.258960
3039.000000	0.257675
3038.000000	0.256414
3037.000000	0.255185
3036.000000	0.253994
3035.000000	0.252841
3034.000000	0.251715
3033.000000	0.250604
3032.000000	0.249498
3031.000000	0.248392
3030.000000	0.247293
3029.000000	0.246220
3028.000000	0.245181
3027.000000	0.244176
3026.000000	0.243204
3025.000000	0.242268
3024.000000	0.241374
3023.000000	0.240521
3022.000000	0.239710
3021.000000	0.238947
3020.000000	0.238240
3019.000000	0.237590
3018.000000	0.237002
3017.000000	0.236481
3016.000000	0.236025
3015.000000	0.235623
3014.000000	0.235262
3013.000000	0.234934
3012.000000	0.234635
3011.000000	0.234363
3010.000000	0.234127
3009.000000	0.233943
3008.000000	0.233822
3007.000000	0.233767
3006.000000	0.233774
3005.000000	0.233843
3004.000000	0.233974
3003.000000	0.234168
3002.000000	0.234431
3001.000000	0.234778
3000.000000	0.235222
2999.000000	0.235773
2998.000000	0.236438
2997.000000	0.237225
2996.000000	0.238140
2995.000000	0.239189
2994.000000	0.240378
2993.000000	0.241719
2992.000000	0.243219
2991.000000	0.244874
2990.000000	0.246682
2989.000000	0.248645
2988.000000	0.250758
2987.000000	0.253012
2986.000000	0.255396
2985.000000	0.257906
2984.000000	0.260539
2983.000000	0.263288
2982.000000	0.266146
2981.000000	0.269105
2980.000000	0.272158
2979.000000	0.275296
2978.000000	0.278516
2977.000000	0.281823
2976.000000	0.285219
2975.000000	0.288700
2974.000000	0.292254
2973.000000	0.295867
2972.000000	0.299526
2971.000000	0.303216
2970.000000	0.306931
2969.000000	0.310665
2968.000000	0.314404
2967.000000	0.318130
2966.000000	0.321820
2965.000000	0.325467
2964.000000	0.329076
2963.000000	0.332653
2962.000000	0.336205
2961.000000	0.339736
2960.000000	0.343256
2959.000000	0.346781
2958.000000	0.350325
2957.000000	0.353902
2956.000000	0.357528
2955.000000	0.361221
2954.000000	0.365003
2953.000000	0.368896
2952.000000	0.372920
2951.000000	0.377091
2950.000000	0.381416
2949.000000	0.385893
2948.000000	0.390506
2947.000000	0.395226
2946.000000	0.400008
2945.000000	0.404802
2944.000000	0.409569
2943.000000	0.414269
2942.000000	0.418860
2941.000000	0.423304
2940.000000	0.427568
2939.000000	0.431625
2938.000000	0.435441
2937.000000	0.438980
2936.000000	0.442214
2935.000000	0.445130
2934.000000	0.447710
2933.000000	0.449936
2932.000000	0.451792
2931.000000	0.453255
2930.000000	0.454289
2929.000000	0.454841
2928.000000	0.454863
2927.000000	0.454306
2926.000000	0.453122
2925.000000	0.451273
2924.000000	0.448749
2923.000000	0.445562
2922.000000	0.441751
2921.000000	0.437382
2920.000000	0.432556
2919.000000	0.427390
2918.000000	0.422001
2917.000000	0.416510
2916.000000	0.411038
2915.000000	0.405696
2914.000000	0.400559
2913.000000	0.395677
2912.000000	0.391082
2911.000000	0.386785
2910.000000	0.382776
2909.000000	0.379033
2908.000000	0.375531
2907.000000	0.372240
2906.000000	0.369131
2905.000000	0.366182
2904.000000	0.363373
2903.000000	0.360678
2902.000000	0.358067
2901.000000	0.355516
2900.000000	0.353007
2899.000000	0.350526
2898.000000	0.348061
2897.000000	0.345604
2896.000000	0.343156
2895.000000	0.340715
2894.000000	0.338279
2893.000000	0.335844
2892.000000	0.333405
2891.000000	0.330953
2890.000000	0.328474
2889.000000	0.325962
2888.000000	0.323418
2887.000000	0.320845
2886.000000	0.318245
2885.000000	0.315625
2884.000000	0.312989
2883.000000	0.310335
2882.000000	0.307661
2881.000000	0.304967
2880.000000	0.302252
2879.000000	0.299513
2878.000000	0.296742
2877.000000	0.293936
2876.000000	0.291088
2875.000000	0.288193
2874.000000	0.285243
2873.000000	0.282240
2872.000000	0.279186
2871.000000	0.276093
2870.000000	0.272992
2869.000000	0.269942
2868.000000	0.267007
2867.000000	0.264247
2866.000000	0.261720
2865.000000	0.259484
2864.000000	0.257578
2863.000000	0.256013
2862.000000	0.254778
2861.000000	0.253845
2860.000000	0.253154
2859.000000	0.252606
2858.000000	0.252069
2857.000000	0.251387
2856.000000	0.250384
2855.000000	0.248893
2854.000000	0.246779
2853.000000	0.243970
2852.000000	0.240458
2851.000000	0.236295
2850.000000	0.231602
2849.000000	0.226554
2848.000000	0.221341
2847.000000	0.216129
2846.000000	0.211047
2845.000000	0.206181
2844.000000	0.201576
2843.000000	0.197237
2842.000000	0.193152
2841.000000	0.189307
2840.000000	0.185679
2839.000000	0.182240
2838.000000	0.178965
2837.000000	0.175835
2836.000000	0.172833
2835.000000	0.169939
2834.000000	0.167144
2833.000000	0.164453
2832.000000	0.161865
2831.000000	0.159373
2830.000000	0.156976
2829.000000	0.154682
2828.000000	0.152485
2827.000000	0.150375
2826.000000	0.148347
2825.000000	0.146401
2824.000000	0.144532
2823.000000	0.142723
2822.000000	0.140971
2821.000000	0.139283
2820.000000	0.137658
2819.000000	0.136087
2818.000000	0.134567
2817.000000	0.133101
2816.000000	0.131690
2815.000000	0.130321
2814.000000	0.128986
2813.000000	0.127688
2812.000000	0.126427
2811.000000	0.125196
2810.000000	0.123999
2809.000000	0.122844
2808.000000	0.121730
2807.000000	0.120645
2806.000000	0.119583
2805.000000	0.118549
2804.000000	0.117540
2803.000000	0.116546
2802.000000	0.115568
2801.000000	0.114620
2800.000000	0.113706
2799.000000	0.112818
2798.000000	0.111952
2797.000000	0.111111
2796.000000	0.110292
2795.000000	0.109485
2794.000000	0.108689
2793.000000	0.107913
2792.000000	0.107160
2791.000000	0.106426
2790.000000	0.105716
2789.000000	0.105040
2788.000000	0.104393
2787.000000	0.103759
2786.000000	0.103130
2785.000000	0.102517
2784.000000	0.101926
2783.000000	0.101351
2782.000000	0.100795
2781.000000	0.100267
2780.000000	0.099764
2779.000000	0.099273
2778.000000	0.098789
2777.000000	0.098323
2776.000000	0.097881
2775.000000	0.097460
2774.000000	0.097065
2773.000000	0.096702
2772.000000	0.096361
2771.000000	0.096022
2770.000000	0.095675
2769.000000	0.095319
2768.000000	0.094946
2767.000000	0.094541
2766.000000	0.094101
2765.000000	0.093642
2764.000000	0.093174
2763.000000	0.092697
2762.000000	0.092217
2761.000000	0.091748
2760.000000	0.091296
2759.000000	0.090857
2758.000000	0.090434
2757.000000	0.090036
2756.000000	0.089663
2755.000000	0.089300
2754.000000	0.088944
2753.000000	0.088600
2752.000000	0.088266
2751.000000	0.087932
2750.000000	0.087598
2749.000000	0.087281
2748.000000	0.086983
2747.000000	0.086691
2746.000000	0.086400
2745.000000	0.086115
2744.000000	0.085835
2743.000000	0.085548
2742.000000	0.085255
2741.000000	0.084966
2740.000000	0.084681
2739.000000	0.084392
2738.000000	0.084098
2737.000000	0.083809
2736.000000	0.083522
2735.000000	0.083222
2734.000000	0.082907
2733.000000	0.082589
2732.000000	0.082274
2731.000000	0.081953
2730.000000	0.081627
2729.000000	0.081306
2728.000000	0.080987
2727.000000	0.080658
2726.000000	0.080316
2725.000000	0.079970
2724.000000	0.079622
2723.000000	0.079265
2722.000000	0.078905
2721.000000	0.078553
2720.000000	0.078202
2719.000000	0.077834
2718.000000	0.077448
2717.000000	0.077057
2716.000000	0.076666
2715.000000	0.076264
2714.000000	0.075853
2713.000000	0.075443
2712.000000	0.075037
2711.000000	0.074623
2710.000000	0.074199
2709.000000	0.073775
2708.000000	0.073352
2707.000000	0.072923
2706.000000	0.072494
2705.000000	0.072077
2704.000000	0.071672
2703.000000	0.071265
2702.000000	0.070853
2701.000000	0.070448
2700.000000	0.070053
2699.000000	0.069660
2698.000000	0.069269
2697.000000	0.068893
2696.000000	0.068532
2695.000000	0.068174
2694.000000	0.067814
2693.000000	0.067462
2692.000000	0.067116
2691.000000	0.066766
2690.000000	0.066416
2689.000000	0.066079
2688.000000	0.065757
2687.000000	0.065436
2686.000000	0.065114
2685.000000	0.064801
2684.000000	0.064493
2683.000000	0.064175
2682.000000	0.063850
2681.000000	0.063534
2680.000000	0.063232
2679.000000	0.062934
2678.000000	0.062637
2677.000000	0.062347
2676.000000	0.062057
2675.000000	0.061754
2674.000000	0.061440
2673.000000	0.061130
2672.000000	0.060827
2671.000000	0.060525
2670.000000	0.060225
2669.000000	0.059936
2668.000000	0.059652
2667.000000	0.059356
2666.000000	0.059049
2665.000000	0.058744
2664.000000	0.058443
2663.000000	0.058139
2662.000000	0.057834
2661.000000	0.057543
2660.000000	0.057264
2659.000000	0.056980
2658.000000	0.056689
2657.000000	0.056400
2656.000000	0.056111
2655.000000	0.055810
2654.000000	0.055503
2653.000000	0.055208
2652.000000	0.054925
2651.000000	0.054638
2650.000000	0.054341
2649.000000	0.054042
2648.000000	0.053741
2647.000000	0.053426
2646.000000	0.053101
2645.000000	0.052785
2644.000000	0.052477
2643.000000	0.052165
2642.000000	0.051843
2641.000000	0.051521
2640.000000	0.051198
2639.000000	0.050863
2638.000000	0.050518
2637.000000	0.050178
2636.000000	0.049843
2635.000000	0.049501
2634.000000	0.049149
2633.000000	0.048801
2632.000000	0.048459
2631.000000	0.048109
2630.000000	0.047752
2629.000000	0.047402
2628.000000	0.047061
2627.000000	0.046717
2626.000000	0.046369
2625.000000	0.046030
2624.000000	0.045700
2623.000000	0.045368
2622.000000	0.045035
2621.000000	0.044715
2620.000000	0.044405
2619.000000	0.044091
2618.000000	0.043776
2617.000000	0.043472
2616.000000	0.043178
2615.000000	0.042878
2614.000000	0.042573
2613.000000	0.042278
2612.000000	0.041997
2611.000000	0.041715
2610.000000	0.041430
2609.000000	0.041154
2608.000000	0.040885
2607.000000	0.040610
2606.000000	0.040335
2605.000000	0.040073
2604.000000	0.039825
2603.000000	0.039575
2602.000000	0.039322
2601.000000	0.039076
2600.000000	0.038834
2599.000000	0.038582
2598.000000	0.038324
2597.000000	0.038078
2596.000000	0.037848
2595.000000	0.037622
2594.000000	0.037401
2593.000000	0.037193
2592.000000	0.036990
2591.000000	0.036774
2590.000000	0.036546
2589.000000	0.036322
2588.000000	0.036107
2587.000000	0.035891
2586.000000	0.035680
2585.000000	0.035486
2584.000000	0.035302
2583.000000	0.035105
2582.000000	0.034891
2581.000000	0.034676
2580.000000	0.034465
2579.000000	0.034250
2578.000000	0.034041
2577.000000	0.033853
2576.000000	0.033680
2575.000000	0.033502
2574.000000	0.033311
2573.000000	0.033117
2572.000000	0.032918
2571.000000	0.032705
2570.000000	0.032488
2569.000000	0.032288
2568.000000	0.032108
2567.000000	0.031926
2566.000000	0.031734
2565.000000	0.031540
2564.000000	0.031344
2563.000000	0.031132
2562.000000	0.030912
2561.000000	0.030704
2560.000000	0.030512
2559.000000	0.030325
2558.000000	0.030137
2557.000000	0.029956
2556.000000	0.029770
2555.000000	0.029563
2554.000000	0.029343
2553.000000	0.029134
2552.000000	0.028942
2551.000000	0.028755
2550.000000	0.028571
2549.000000	0.028401
2548.000000	0.028238
2547.000000	0.028060
2546.000000	0.027867
2545.000000	0.027677
2544.000000	0.027496
2543.000000	0.027315
2542.000000	0.027136
2541.000000	0.026968
2540.000000	0.026806
2539.000000	0.026629
2538.000000	0.026437
2537.000000	0.026248
2536.000000	0.026063
2535.000000	0.025871
2534.000000	0.025679
2533.000000	0.025502
2532.000000	0.025338
2531.000000	0.025165
2530.000000	0.024978
2529.000000	0.024791
2528.000000	0.024606
2527.000000	0.024416
2526.000000	0.024224
2525.000000	0.024050
2524.000000	0.023892
2523.000000	0.023732
2522.000000	0.023566
2521.000000	0.023405
2520.000000	0.023246
2519.000000	0.023078
2518.000000	0.022907
2517.000000	0.022756
2516.000000	0.022622
2515.000000	0.022486
2514.000000	0.022346
2513.000000	0.022214
2512.000000	0.022090
2511.000000	0.021956
2510.000000	0.021817
2509.000000	0.021688
2508.000000	0.021570
2507.000000	0.021449
2506.000000	0.021327
2505.000000	0.021216
2504.000000	0.021110
2503.000000	0.020987
2502.000000	0.020849
2501.000000	0.020715
2500.000000	0.020583
2499.000000	0.020436
2498.000000	0.020274
2497.000000	0.020113
2496.000000	0.019952
2495.000000	0.019775
2494.000000	0.019585
2493.000000	0.019398
2492.000000	0.019217
2491.000000	0.019028
2490.000000	0.018836
2489.000000	0.018657
2488.000000	0.018489
2487.000000	0.018317
2486.000000	0.018144
2485.000000	0.017988
2484.000000	0.017842
2483.000000	0.017685
2482.000000	0.017515
2481.000000	0.017350
2480.000000	0.017190
2479.000000	0.017022
2478.000000	0.016849
2477.000000	0.016694
2476.000000	0.016553
2475.000000	0.016408
2474.000000	0.016254
2473.000000	0.016104
2472.000000	0.015955
2471.000000	0.015792
2470.000000	0.015619
2469.000000	0.015458
2468.000000	0.015310
2467.000000	0.015163
2466.000000	0.015016
2465.000000	0.014885
2464.000000	0.014759
2463.000000	0.014613
2462.000000	0.014448
2461.000000	0.014286
2460.000000	0.014133
2459.000000	0.013978
2458.000000	0.013826
2457.000000	0.013691
2456.000000	0.013567
2455.000000	0.013425
2454.000000	0.013263
2453.000000	0.013098
2452.000000	0.012937
2451.000000	0.012767
2450.000000	0.012599
2449.000000	0.012453
2448.000000	0.012322
2447.000000	0.012182
2446.000000	0.012026
2445.000000	0.011871
2444.000000	0.011716
2443.000000	0.011548
2442.000000	0.011376
2441.000000	0.011222
2440.000000	0.011085
2439.000000	0.010945
2438.000000	0.010796
2437.000000	0.010648
2436.000000	0.010496
2435.000000	0.010323
2434.000000	0.010140
2433.000000	0.009974
2432.000000	0.009827
2431.000000	0.009678
2430.000000	0.009525
2429.000000	0.009379
2428.000000	0.009233
2427.000000	0.009070
2426.000000	0.008892
2425.000000	0.008727
2424.000000	0.008581
2423.000000	0.008438
2422.000000	0.008299
2421.000000	0.008172
2420.000000	0.008043
2419.000000	0.007889
2418.000000	0.007716
2417.000000	0.007555
2416.000000	0.007413
2415.000000	0.007277
2414.000000	0.007146
2413.000000	0.007036
2412.000000	0.006932
2411.000000	0.006810
2410.000000	0.006670
2409.000000	0.006535
2408.000000	0.006412
2407.000000	0.006291
2406.000000	0.006178
2405.000000	0.006088
2404.000000	0.006009
2403.000000	0.005906
2402.000000	0.005775
2401.000000	0.005635
2400.000000	0.005489
2399.000000	0.005330
2398.000000	0.005172
2397.000000	0.005040
2396.000000	0.004930
2395.000000	0.004810
2394.000000	0.004673
2393.000000	0.004533
2392.000000	0.004389
2391.000000	0.004231
2390.000000	0.004076
2389.000000	0.003950
2388.000000	0.003852
2387.000000	0.003756
2386.000000	0.003652
2385.000000	0.003551
2384.000000	0.003443
2383.000000	0.003308
2382.000000	0.003162
2381.000000	0.003035
2380.000000	0.002937
2379.000000	0.002843
2378.000000	0.002751
2377.000000	0.002674
2376.000000	0.002600
2375.000000	0.002499
2374.000000	0.002376
2373.000000	0.002263
2372.000000	0.002167
2371.000000	0.002066
2370.000000	0.001965
2369.000000	0.001887
2368.000000	0.001821
2367.000000	0.001727
2366.000000	0.001610
2365.000000	0.001516
2364.000000	0.001441
2363.000000	0.001350
2362.000000	0.001267
2361.000000	0.001217
2360.000000	0.001185
2359.000000	0.001141
2358.000000	0.001087
2357.000000	0.001067
2356.000000	0.001057
2355.000000	0.001017
2354.000000	0.000947
2353.000000	0.000842
2352.000000	0.000665
2351.000000	0.000370
2350.000000	0.000084
2349.000000	0.000000
2348.000000	0.000158
2347.000000	0.000421
2346.000000	0.000561
2345.000000	0.000528
2344.000000	0.000407
2343.000000	0.000316
2342.000000	0.000308
2341.000000	0.000328
2340.000000	0.000355
2339.000000	0.000353
2338.000000	0.000345
2337.000000	0.000351
2336.000000	0.000373
2335.000000	0.000380
2334.000000	0.000381
2333.000000	0.000384
2332.000000	0.000388
2331.000000	0.000341
2330.000000	0.000277
2329.000000	0.000258
2328.000000	0.000293
2327.000000	0.000374
2326.000000	0.000443
2325.000000	0.000513
2324.000000	0.000539
2323.000000	0.000509
2322.000000	0.000457
2321.000000	0.000427
2320.000000	0.000440
2319.000000	0.000454
2318.000000	0.000487
2317.000000	0.000548
2316.000000	0.000627
2315.000000	0.000667
2314.000000	0.000661
2313.000000	0.000645
2312.000000	0.000640
2311.000000	0.000643
2310.000000	0.000654
2309.000000	0.000698
2308.000000	0.000763
2307.000000	0.000826
2306.000000	0.000882
2305.000000	0.000957
2304.000000	0.001047
2303.000000	0.001127
2302.000000	0.001196
2301.000000	0.001275
2300.000000	0.001362
2299.000000	0.001433
2298.000000	0.001490
2297.000000	0.001562
2296.000000	0.001643
2295.000000	0.001710
2294.000000	0.001760
2293.000000	0.001823
2292.000000	0.001896
2291.000000	0.001955
2290.000000	0.001999
2289.000000	0.002049
2288.000000	0.002105
2287.000000	0.002146
2286.000000	0.002175
2285.000000	0.002217
2284.000000	0.002271
2283.000000	0.002314
2282.000000	0.002348
2281.000000	0.002395
2280.000000	0.002451
2279.000000	0.002489
2278.000000	0.002513
2277.000000	0.002548
2276.000000	0.002599
2275.000000	0.002641
2274.000000	0.002676
2273.000000	0.002727
2272.000000	0.002790
2271.000000	0.002840
2270.000000	0.002879
2269.000000	0.002934
2268.000000	0.003003
2267.000000	0.003059
2266.000000	0.003104
2265.000000	0.003164
2264.000000	0.003234
2263.000000	0.003292
2262.000000	0.003339
2261.000000	0.003403
2260.000000	0.003484
2259.000000	0.003554
2258.000000	0.003613
2257.000000	0.003682
2256.000000	0.003759
2255.000000	0.003819
2254.000000	0.003871
2253.000000	0.003940
2252.000000	0.004024
2251.000000	0.004094
2250.000000	0.004153
2249.000000	0.004224
2248.000000	0.004307
2247.000000	0.004374
2246.000000	0.004429
2245.000000	0.004502
2244.000000	0.004593
2243.000000	0.004674
2242.000000	0.004743
2241.000000	0.004823
2240.000000	0.004914
2239.000000	0.004987
2238.000000	0.005045
2237.000000	0.005119
2236.000000	0.005210
2235.000000	0.005294
2234.000000	0.005369
2233.000000	0.005452
2232.000000	0.005534
2231.000000	0.005583
2230.000000	0.005603
2229.000000	0.005628
2228.000000	0.005664
2227.000000	0.005686
2226.000000	0.005695
2225.000000	0.005713
2224.000000	0.005736
2223.000000	0.005735
2222.000000	0.005714
2221.000000	0.005702
2220.000000	0.005705
2219.000000	0.005702
2218.000000	0.005704
2217.000000	0.005736
2216.000000	0.005787
2215.000000	0.005819
2214.000000	0.005827
2213.000000	0.005842
2212.000000	0.005869
2211.000000	0.005888
2210.000000	0.005906
2209.000000	0.005957
2208.000000	0.006034
2207.000000	0.006103
2206.000000	0.006152
2205.000000	0.006199
2204.000000	0.006244
2203.000000	0.006268
2202.000000	0.006287
2201.000000	0.006340
2200.000000	0.006426
2199.000000	0.006510
2198.000000	0.006583
2197.000000	0.006663
2196.000000	0.006741
2195.000000	0.006788
2194.000000	0.006817
2193.000000	0.006869
2192.000000	0.006957
2191.000000	0.007053
2190.000000	0.007150
2189.000000	0.007265
2188.000000	0.007385
2187.000000	0.007476
2186.000000	0.007541
2185.000000	0.007617
2184.000000	0.007714
2183.000000	0.007813
2182.000000	0.007918
2181.000000	0.008050
2180.000000	0.008194
2179.000000	0.008312
2178.000000	0.008402
2177.000000	0.008497
2176.000000	0.008607
2175.000000	0.008712
2174.000000	0.008818
2173.000000	0.008951
2172.000000	0.009101
2171.000000	0.009232
2170.000000	0.009341
2169.000000	0.009454
2168.000000	0.009569
2167.000000	0.009661
2166.000000	0.009743
2165.000000	0.009851
2164.000000	0.009983
2163.000000	0.010097
2162.000000	0.010185
2161.000000	0.010272
2160.000000	0.010357
2159.000000	0.010418
2158.000000	0.010463
2157.000000	0.010527
2156.000000	0.010609
2155.000000	0.010677
2154.000000	0.010729
2153.000000	0.010788
2152.000000	0.010850
2151.000000	0.010885
2150.000000	0.010900
2149.000000	0.010932
2148.000000	0.010982
2147.000000	0.011019
2146.000000	0.011043
2145.000000	0.011082
2144.000000	0.011131
2143.000000	0.011155
2142.000000	0.011158
2141.000000	0.011177
2140.000000	0.011215
2139.000000	0.011242
2138.000000	0.011258
2137.000000	0.011288
2136.000000	0.011321
2135.000000	0.011326
2134.000000	0.011309
2133.000000	0.011308
2132.000000	0.011323
2131.000000	0.011323
2130.000000	0.011307
2129.000000	0.011308
2128.000000	0.011326
2127.000000	0.011328
2126.000000	0.011316
2125.000000	0.011322
2124.000000	0.011345
2123.000000	0.011350
2122.000000	0.011338
2121.000000	0.011339
2120.000000	0.011353
2119.000000	0.011348
2118.000000	0.011332
2117.000000	0.011340
2116.000000	0.011369
2115.000000	0.011375
2114.000000	0.011353
2113.000000	0.011340
2112.000000	0.011339
2111.000000	0.011318
2110.000000	0.011281
2109.000000	0.011266
2108.000000	0.011275
2107.000000	0.011274
2106.000000	0.011260
2105.000000	0.011265
2104.000000	0.011284
2103.000000	0.011280
2102.000000	0.011252
2101.000000	0.011237
2100.000000	0.011239
2099.000000	0.011227
2098.000000	0.011207
2097.000000	0.011214
2096.000000	0.011242
2095.000000	0.011249
2094.000000	0.011236
2093.000000	0.011246
2092.000000	0.011281
2091.000000	0.011301
2090.000000	0.011294
2089.000000	0.011292
2088.000000	0.011298
2087.000000	0.011287
2086.000000	0.011264
2085.000000	0.011261
2084.000000	0.011275
2083.000000	0.011273
2082.000000	0.011258
2081.000000	0.011272
2080.000000	0.011314
2079.000000	0.011344
2078.000000	0.011358
2077.000000	0.011387
2076.000000	0.011429
2075.000000	0.011446
2074.000000	0.011442
2073.000000	0.011455
2072.000000	0.011489
2071.000000	0.011512
2070.000000	0.011529
2069.000000	0.011585
2068.000000	0.011684
2067.000000	0.011782
2066.000000	0.011849
2065.000000	0.011884
2064.000000	0.011884
2063.000000	0.011838
2062.000000	0.011786
2061.000000	0.011776
2060.000000	0.011795
2059.000000	0.011791
2058.000000	0.011765
2057.000000	0.011761
2056.000000	0.011781
2055.000000	0.011786
2054.000000	0.011774
2053.000000	0.011778
2052.000000	0.011791
2051.000000	0.011774
2050.000000	0.011728
2049.000000	0.011699
2048.000000	0.011691
2047.000000	0.011670
2046.000000	0.011639
2045.000000	0.011641
2044.000000	0.011670
2043.000000	0.011670
2042.000000	0.011613
2041.000000	0.011524
2040.000000	0.011412
2039.000000	0.011270
2038.000000	0.011129
2037.000000	0.011033
2036.000000	0.010965
2035.000000	0.010870
2034.000000	0.010740
2033.000000	0.010614
2032.000000	0.010495
2031.000000	0.010351
2030.000000	0.010196
2029.000000	0.010073
2028.000000	0.009973
2027.000000	0.009842
2026.000000	0.009679
2025.000000	0.009524
2024.000000	0.009379
2023.000000	0.009211
2022.000000	0.009044
2021.000000	0.008945
2020.000000	0.008927
2019.000000	0.008919
2018.000000	0.008857
2017.000000	0.008723
2016.000000	0.008510
2015.000000	0.008224
2014.000000	0.007939
2013.000000	0.007737
2012.000000	0.007617
2011.000000	0.007514
2010.000000	0.007410
2009.000000	0.007328
2008.000000	0.007250
2007.000000	0.007128
2006.000000	0.006977
2005.000000	0.006857
2004.000000	0.006776
2003.000000	0.006693
2002.000000	0.006607
2001.000000	0.006550
2000.000000	0.006509
1999.000000	0.006428
1998.000000	0.006319
1997.000000	0.006249
1996.000000	0.006255
1995.000000	0.006324
1994.000000	0.006449
1993.000000	0.006598
1992.000000	0.006679
1991.000000	0.006612
1990.000000	0.006442
1989.000000	0.006274
1988.000000	0.006138
1987.000000	0.005995
1986.000000	0.005855
1985.000000	0.005780
1984.000000	0.005764
1983.000000	0.005742
1982.000000	0.005700
1981.000000	0.005690
1980.000000	0.005712
1979.000000	0.005715
1978.000000	0.005696
1977.000000	0.005701
1976.000000	0.005724
1975.000000	0.005710
1974.000000	0.005660
1973.000000	0.005637
1972.000000	0.005662
1971.000000	0.005717
1970.000000	0.005829
1969.000000	0.006026
1968.000000	0.006219
1967.000000	0.006251
1966.000000	0.006103
1965.000000	0.005906
1964.000000	0.005763
1963.000000	0.005672
1962.000000	0.005620
1961.000000	0.005628
1960.000000	0.005675
1959.000000	0.005702
1958.000000	0.005705
1957.000000	0.005731
1956.000000	0.005766
1955.000000	0.005748
1954.000000	0.005683
1953.000000	0.005650
1952.000000	0.005669
1951.000000	0.005687
1950.000000	0.005697
1949.000000	0.005750
1948.000000	0.005840
1947.000000	0.005910
1946.000000	0.005981
1945.000000	0.006146
1944.000000	0.006390
1943.000000	0.006546
1942.000000	0.006501
1941.000000	0.006310
1940.000000	0.006072
1939.000000	0.005838
1938.000000	0.005663
1937.000000	0.005600
1936.000000	0.005624
1935.000000	0.005658
1934.000000	0.005679
1933.000000	0.005724
1932.000000	0.005779
1931.000000	0.005793
1930.000000	0.005778
1929.000000	0.005800
1928.000000	0.005877
1927.000000	0.005997
1926.000000	0.006213
1925.000000	0.006593
1924.000000	0.007034
1923.000000	0.007299
1922.000000	0.007302
1921.000000	0.007191
1920.000000	0.007158
1919.000000	0.007265
1918.000000	0.007451
1917.000000	0.007625
1916.000000	0.007705
1915.000000	0.007680
1914.000000	0.007667
1913.000000	0.007800
1912.000000	0.008070
1911.000000	0.008346
1910.000000	0.008532
1909.000000	0.008625
1908.000000	0.008627
1907.000000	0.008540
1906.000000	0.008432
1905.000000	0.008396
1904.000000	0.008424
1903.000000	0.008437
1902.000000	0.008426
1901.000000	0.008449
1900.000000	0.008519
1899.000000	0.008607
1898.000000	0.008738
1897.000000	0.008958
1896.000000	0.009192
1895.000000	0.009311
1894.000000	0.009325
1893.000000	0.009374
1892.000000	0.009549
1891.000000	0.009800
1890.000000	0.010026
1889.000000	0.010179
1888.000000	0.010246
1887.000000	0.010228
1886.000000	0.010207
1885.000000	0.010277
1884.000000	0.010415
1883.000000	0.010534
1882.000000	0.010644
1881.000000	0.010820
1880.000000	0.011044
1879.000000	0.011231
1878.000000	0.011383
1877.000000	0.011578
1876.000000	0.011819
1875.000000	0.012048
1874.000000	0.012276
1873.000000	0.012587
1872.000000	0.013034
1871.000000	0.013639
1870.000000	0.014378
1869.000000	0.015070
1868.000000	0.015446
1867.000000	0.015401
1866.000000	0.015115
1865.000000	0.014883
1864.000000	0.014834
1863.000000	0.014906
1862.000000	0.015048
1861.000000	0.015278
1860.000000	0.015548
1859.000000	0.015753
1858.000000	0.015898
1857.000000	0.016083
1856.000000	0.016320
1855.000000	0.016536
1854.000000	0.016738
1853.000000	0.017021
1852.000000	0.017405
1851.000000	0.017852
1850.000000	0.018396
1849.000000	0.019047
1848.000000	0.019637
1847.000000	0.020005
1846.000000	0.020300
1845.000000	0.020847
1844.000000	0.021651
1843.000000	0.022340
1842.000000	0.022666
1841.000000	0.022795
1840.000000	0.023005
1839.000000	0.023384
1838.000000	0.023866
1837.000000	0.024403
1836.000000	0.024963
1835.000000	0.025495
1834.000000	0.026011
1833.000000	0.026639
1832.000000	0.027501
1831.000000	0.028533
1830.000000	0.029512
1829.000000	0.030335
1828.000000	0.031005
1827.000000	0.031587
1826.000000	0.032253
1825.000000	0.033077
1824.000000	0.033879
1823.000000	0.034445
1822.000000	0.034856
1821.000000	0.035390
1820.000000	0.036157
1819.000000	0.037033
1818.000000	0.037927
1817.000000	0.038867
1816.000000	0.039838
1815.000000	0.040789
1814.000000	0.041802
1813.000000	0.043006
1812.000000	0.044306
1811.000000	0.045469
1810.000000	0.046473
1809.000000	0.047481
1808.000000	0.048524
1807.000000	0.049512
1806.000000	0.050521
1805.000000	0.051775
1804.000000	0.053338
1803.000000	0.055034
1802.000000	0.056686
1801.000000	0.058226
1800.000000	0.059636
1799.000000	0.060957
1798.000000	0.062330
1797.000000	0.063824
1796.000000	0.065295
1795.000000	0.066661
1794.000000	0.068239
1793.000000	0.070424
1792.000000	0.072994
1791.000000	0.075296
1790.000000	0.077044
1789.000000	0.078521
1788.000000	0.080127
1787.000000	0.082091
1786.000000	0.084507
1785.000000	0.087312
1784.000000	0.090223
1783.000000	0.093006
1782.000000	0.095783
1781.000000	0.098808
1780.000000	0.102061
1779.000000	0.105337
1778.000000	0.108660
1777.000000	0.112228
1776.000000	0.116014
1775.000000	0.119900
1774.000000	0.124207
1773.000000	0.129450
1772.000000	0.135431
1771.000000	0.141347
1770.000000	0.146906
1769.000000	0.152627
1768.000000	0.158904
1767.000000	0.165413
1766.000000	0.171706
1765.000000	0.177959
1764.000000	0.184779
1763.000000	0.192619
1762.000000	0.201387
1761.000000	0.210442
1760.000000	0.219009
1759.000000	0.226918
1758.000000	0.234814
1757.000000	0.243276
1756.000000	0.251871
1755.000000	0.259666
1754.000000	0.266669
1753.000000	0.273897
1752.000000	0.282035
1751.000000	0.290506
1750.000000	0.298201
1749.000000	0.304716
1748.000000	0.310225
1747.000000	0.314945
1746.000000	0.319200
1745.000000	0.323281
1744.000000	0.327034
1743.000000	0.330014
1742.000000	0.332254
1741.000000	0.334369
1740.000000	0.336644
1739.000000	0.338578
1738.000000	0.339623
1737.000000	0.339911
1736.000000	0.340081
1735.000000	0.340674
1734.000000	0.341528
1733.000000	0.341947
1732.000000	0.341255
1731.000000	0.339474
1730.000000	0.337251
1729.000000	0.335203
1728.000000	0.333441
1727.000000	0.331780
1726.000000	0.330288
1725.000000	0.329159
1724.000000	0.328240
1723.000000	0.327160
1722.000000	0.325895
1721.000000	0.324842
1720.000000	0.324382
1719.000000	0.324548
1718.000000	0.324965
1717.000000	0.325220
1716.000000	0.324927
1715.000000	0.323936
1714.000000	0.322718
1713.000000	0.321842
1712.000000	0.321350
1711.000000	0.321031
1710.000000	0.320957
1709.000000	0.321373
1708.000000	0.322279
1707.000000	0.323567
1706.000000	0.325296
1705.000000	0.327376
1704.000000	0.329134
1703.000000	0.330127
1702.000000	0.331496
1701.000000	0.335453
1700.000000	0.341863
1699.000000	0.347746
1698.000000	0.351737
1697.000000	0.355203
1696.000000	0.359647
1695.000000	0.364877
1694.000000	0.369618
1693.000000	0.373695
1692.000000	0.377913
1691.000000	0.382818
1690.000000	0.388410
1689.000000	0.394235
1688.000000	0.399641
1687.000000	0.404481
1686.000000	0.409955
1685.000000	0.417670
1684.000000	0.426968
1683.000000	0.435406
1682.000000	0.441915
1681.000000	0.447568
1680.000000	0.453349
1679.000000	0.459117
1678.000000	0.464793
1677.000000	0.471347
1676.000000	0.479865
1675.000000	0.489752
1674.000000	0.499162
1673.000000	0.507310
1672.000000	0.514936
1671.000000	0.523065
1670.000000	0.532248
1669.000000	0.542288
1668.000000	0.552036
1667.000000	0.560282
1666.000000	0.567218
1665.000000	0.574267
1664.000000	0.582525
1663.000000	0.591636
1662.000000	0.600502
1661.000000	0.608613
1660.000000	0.615987
1659.000000	0.622575
1658.000000	0.628387
1657.000000	0.633657
1656.000000	0.638645
1655.000000	0.644013
1654.000000	0.650837
1653.000000	0.659550
1652.000000	0.667955
1651.000000	0.672839
1650.000000	0.675029
1649.000000	0.677359
1648.000000	0.681197
1647.000000	0.685821
1646.000000	0.690218
1645.000000	0.694224
1644.000000	0.697736
1643.000000	0.700615
1642.000000	0.703229
1641.000000	0.706297
1640.000000	0.709875
1639.000000	0.713243
1638.000000	0.716194
1637.000000	0.719593
1636.000000	0.723923
1635.000000	0.728328
1634.000000	0.731613
1633.000000	0.733776
1632.000000	0.735434
1631.000000	0.736754
1630.000000	0.737857
1629.000000	0.739157
1628.000000	0.740667
1627.000000	0.741725
1626.000000	0.742009
1625.000000	0.742121
1624.000000	0.742540
1623.000000	0.742729
1622.000000	0.742076
1621.000000	0.740748
1620.000000	0.739075
1619.000000	0.736894
1618.000000	0.733889
1617.000000	0.730117
1616.000000	0.725806
1615.000000	0.720724
1614.000000	0.714673
1613.000000	0.708058
1612.000000	0.701288
1611.000000	0.694229
1610.000000	0.686632
1609.000000	0.678646
1608.000000	0.670485
1607.000000	0.662013
1606.000000	0.653052
1605.000000	0.643769
1604.000000	0.634333
1603.000000	0.624544
1602.000000	0.614221
1601.000000	0.603617
1600.000000	0.593096
1599.000000	0.582666
1598.000000	0.572112
1597.000000	0.561368
1596.000000	0.550437
1595.000000	0.539153
1594.000000	0.527362
1593.000000	0.515150
1592.000000	0.502693
1591.000000	0.489985
1590.000000	0.476952
1589.000000	0.463735
1588.000000	0.450605
1587.000000	0.437702
1586.000000	0.425021
1585.000000	0.412622
1584.000000	0.400638
1583.000000	0.389095
1582.000000	0.377974
1581.000000	0.367436
1580.000000	0.357774
1579.000000	0.348963
1578.000000	0.340378
1577.000000	0.331113
1576.000000	0.321200
1575.000000	0.311935
1574.000000	0.304009
1573.000000	0.297024
1572.000000	0.290489
1571.000000	0.284178
1570.000000	0.277943
1569.000000	0.271909
1568.000000	0.266452
1567.000000	0.261660
1566.000000	0.257322
1565.000000	0.253256
1564.000000	0.249500
1563.000000	0.246163
1562.000000	0.243299
1561.000000	0.241177
1560.000000	0.240142
1559.000000	0.238480
1558.000000	0.236374
1557.000000	0.234690
1556.000000	0.233096
1555.000000	0.231682
1554.000000	0.230617
1553.000000	0.229876
1552.000000	0.229394
1551.000000	0.229161
1550.000000	0.228965
1549.000000	0.228530
1548.000000	0.227964
1547.000000	0.227793
1546.000000	0.228407
1545.000000	0.229444
1544.000000	0.230169
1543.000000	0.230531
1542.000000	0.231153
1541.000000	0.232076
1540.000000	0.232712
1539.000000	0.233410
1538.000000	0.234245
1537.000000	0.234821
1536.000000	0.235478
1535.000000	0.237020
1534.000000	0.239743
1533.000000	0.242928
1532.000000	0.245731
1531.000000	0.248079
1530.000000	0.250459
1529.000000	0.253247
1528.000000	0.256434
1527.000000	0.259859
1526.000000	0.263351
1525.000000	0.266693
1524.000000	0.269975
1523.000000	0.273919
1522.000000	0.279112
1521.000000	0.284987
1520.000000	0.290273
1519.000000	0.294613
1518.000000	0.298666
1517.000000	0.302519
1516.000000	0.305421
1515.000000	0.306875
1514.000000	0.307121
1513.000000	0.306652
1512.000000	0.305698
1511.000000	0.304311
1510.000000	0.302637
1509.000000	0.300599
1508.000000	0.297139
1507.000000	0.290525
1506.000000	0.282260
1505.000000	0.274890
1504.000000	0.268446
1503.000000	0.262290
1502.000000	0.256198
1501.000000	0.250202
1500.000000	0.244440
1499.000000	0.238969
1498.000000	0.233741
1497.000000	0.228708
1496.000000	0.223999
1495.000000	0.219825
1494.000000	0.216425
1493.000000	0.214106
1492.000000	0.213120
1491.000000	0.213338
1490.000000	0.214109
1489.000000	0.214882
1488.000000	0.215613
1487.000000	0.216586
1486.000000	0.218179
1485.000000	0.220594
1484.000000	0.223797
1483.000000	0.227778
1482.000000	0.232627
1481.000000	0.238227
1480.000000	0.244229
1479.000000	0.250623
1478.000000	0.257963
1477.000000	0.266590
1476.000000	0.276064
1475.000000	0.286014
1474.000000	0.297059
1473.000000	0.309789
1472.000000	0.323293
1471.000000	0.335892
1470.000000	0.346981
1469.000000	0.357018
1468.000000	0.366417
1467.000000	0.375326
1466.000000	0.383816
1465.000000	0.391607
1464.000000	0.398027
1463.000000	0.402775
1462.000000	0.406343
1461.000000	0.409504
1460.000000	0.412840
1459.000000	0.416801
1458.000000	0.421568
1457.000000	0.426548
1456.000000	0.430454
1455.000000	0.432396
1454.000000	0.432906
1453.000000	0.432973
1452.000000	0.432990
1451.000000	0.432986
1450.000000	0.433035
1449.000000	0.433194
1448.000000	0.433275
1447.000000	0.433083
1446.000000	0.432723
1445.000000	0.432428
1444.000000	0.432345
1443.000000	0.432589
1442.000000	0.433222
1441.000000	0.434107
1440.000000	0.435045
1439.000000	0.436217
1438.000000	0.438240
1437.000000	0.441323
1436.000000	0.444582
1435.000000	0.447025
1434.000000	0.448712
1433.000000	0.450310
1432.000000	0.452244
1431.000000	0.454475
1430.000000	0.456740
1429.000000	0.458768
1428.000000	0.460367
1427.000000	0.461561
1426.000000	0.462624
1425.000000	0.463630
1424.000000	0.464171
1423.000000	0.463917
1422.000000	0.463135
1421.000000	0.462392
1420.000000	0.461905
1419.000000	0.461127
1418.000000	0.459447
1417.000000	0.456871
1416.000000	0.453758
1415.000000	0.450584
1414.000000	0.447784
1413.000000	0.445466
1412.000000	0.443425
1411.000000	0.441475
1410.000000	0.439625
1409.000000	0.437933
1408.000000	0.436431
1407.000000	0.435184
1406.000000	0.434200
1405.000000	0.433277
1404.000000	0.432194
1403.000000	0.431007
1402.000000	0.430028
1401.000000	0.429565
1400.000000	0.429676
1399.000000	0.430117
1398.000000	0.430614
1397.000000	0.431110
1396.000000	0.431732
1395.000000	0.432620
1394.000000	0.433800
1393.000000	0.435175
1392.000000	0.436717
1391.000000	0.438641
1390.000000	0.441279
1389.000000	0.444788
1388.000000	0.448928
1387.000000	0.453135
1386.000000	0.456951
1385.000000	0.460338
1384.000000	0.463567
1383.000000	0.466902
1382.000000	0.470372
1381.000000	0.473787
1380.000000	0.476937
1379.000000	0.479708
1378.000000	0.482070
1377.000000	0.484047
1376.000000	0.485690
1375.000000	0.486961
1374.000000	0.487684
1373.000000	0.487717
1372.000000	0.487099
1371.000000	0.486002
1370.000000	0.484559
1369.000000	0.482668
1368.000000	0.480157
1367.000000	0.477144
1366.000000	0.474010
1365.000000	0.471038
1364.000000	0.468137
1363.000000	0.464961
1362.000000	0.461307
1361.000000	0.457294
1360.000000	0.453198
1359.000000	0.449337
1358.000000	0.445950
1357.000000	0.443065
1356.000000	0.440566
1355.000000	0.438395
1354.000000	0.436612
1353.000000	0.435269
1352.000000	0.434372
1351.000000	0.433973
1350.000000	0.434142
1349.000000	0.434876
1348.000000	0.436139
1347.000000	0.437979
1346.000000	0.440469
1345.000000	0.443572
1344.000000	0.447195
1343.000000	0.451382
1342.000000	0.456260
1341.000000	0.461730
1340.000000	0.467345
1339.000000	0.472651
1338.000000	0.477552
1337.000000	0.482216
1336.000000	0.486800
1335.000000	0.491391
1334.000000	0.496044
1333.000000	0.500731
1332.000000	0.505331
1331.000000	0.509742
1330.000000	0.513965
1329.000000	0.518031
1328.000000	0.521946
1327.000000	0.525784
1326.000000	0.529711
1325.000000	0.533875
1324.000000	0.538328
1323.000000	0.543126
1322.000000	0.548344
1321.000000	0.553884
1320.000000	0.559308
1319.000000	0.563948
1318.000000	0.567116
1317.000000	0.568224
1316.000000	0.566831
1315.000000	0.562778
1314.000000	0.556306
1313.000000	0.547909
1312.000000	0.538262
1311.000000	0.528166
1310.000000	0.518340
1309.000000	0.509168
1308.000000	0.500718
1307.000000	0.493017
1306.000000	0.486164
1305.000000	0.480171
1304.000000	0.474907
1303.000000	0.470246
1302.000000	0.466117
1301.000000	0.462443
1300.000000	0.459164
1299.000000	0.456328
1298.000000	0.454069
1297.000000	0.452449
1296.000000	0.451449
1295.000000	0.451081
1294.000000	0.451372
1293.000000	0.452263
1292.000000	0.453641
1291.000000	0.455466
1290.000000	0.457764
1289.000000	0.460470
1288.000000	0.463403
1287.000000	0.466416
1286.000000	0.469453
1285.000000	0.472450
1284.000000	0.475283
1283.000000	0.477857
1282.000000	0.480165
1281.000000	0.482227
1280.000000	0.484092
1279.000000	0.485897
1278.000000	0.487817
1277.000000	0.489895
1276.000000	0.492032
1275.000000	0.494154
1274.000000	0.496277
1273.000000	0.498380
1272.000000	0.500341
1271.000000	0.502088
1270.000000	0.503660
1269.000000	0.505097
1268.000000	0.506350
1267.000000	0.507379
1266.000000	0.508214
1265.000000	0.508865
1264.000000	0.509283
1263.000000	0.509471
1262.000000	0.509509
1261.000000	0.509428
1260.000000	0.509175
1259.000000	0.508755
1258.000000	0.508277
1257.000000	0.507818
1256.000000	0.507361
1255.000000	0.506914
1254.000000	0.506554
1253.000000	0.506320
1252.000000	0.506153
1251.000000	0.506006
1250.000000	0.505896
1249.000000	0.505806
1248.000000	0.505649
1247.000000	0.505367
1246.000000	0.504976
1245.000000	0.504458
1244.000000	0.503747
1243.000000	0.502839
1242.000000	0.501802
1241.000000	0.500653
1240.000000	0.499318
1239.000000	0.497759
1238.000000	0.496028
1237.000000	0.494142
1236.000000	0.492042
1235.000000	0.489695
1234.000000	0.487125
1233.000000	0.484332
1232.000000	0.481264
1231.000000	0.477914
1230.000000	0.474336
1229.000000	0.470559
1228.000000	0.466590
1227.000000	0.462492
1226.000000	0.458363
1225.000000	0.454224
1224.000000	0.450051
1223.000000	0.445896
1222.000000	0.441877
1221.000000	0.438041
1220.000000	0.434360
1219.000000	0.430844
1218.000000	0.427540
1217.000000	0.424451
1216.000000	0.421538
1215.000000	0.418809
1214.000000	0.416301
1213.000000	0.414003
1212.000000	0.411885
1211.000000	0.409987
1210.000000	0.408355
1209.000000	0.406933
1208.000000	0.405601
1207.000000	0.404292
1206.000000	0.402989
1205.000000	0.401625
1204.000000	0.400106
1203.000000	0.398407
1202.000000	0.396556
1201.000000	0.394543
1200.000000	0.392351
1199.000000	0.390047
1198.000000	0.387758
1197.000000	0.385580
1196.000000	0.383616
1195.000000	0.382021
1194.000000	0.380951
1193.000000	0.380461
1192.000000	0.380562
1191.000000	0.381334
1190.000000	0.382863
1189.000000	0.385146
1188.000000	0.388126
1187.000000	0.391780
1186.000000	0.396124
1185.000000	0.401112
1184.000000	0.406709
1183.000000	0.413010
1182.000000	0.420205
1181.000000	0.428410
1180.000000	0.437555
1179.000000	0.447497
1178.000000	0.458170
1177.000000	0.469596
1176.000000	0.481878
1175.000000	0.495165
1174.000000	0.509590
1173.000000	0.525182
1172.000000	0.541837
1171.000000	0.559446
1170.000000	0.577947
1169.000000	0.597206
1168.000000	0.616897
1167.000000	0.636605
1166.000000	0.655944
1165.000000	0.674523
1164.000000	0.691829
1163.000000	0.707377
1162.000000	0.721020
1161.000000	0.732788
1160.000000	0.742691
1159.000000	0.750821
1158.000000	0.757445
1157.000000	0.762840
1156.000000	0.766984
1155.000000	0.769800
1154.000000	0.771495
1153.000000	0.772324
1152.000000	0.772346
1151.000000	0.771562
1150.000000	0.770173
1149.000000	0.768394
1148.000000	0.766179
1147.000000	0.763459
1146.000000	0.760385
1145.000000	0.757139
1144.000000	0.753712
1143.000000	0.750126
1142.000000	0.746657
1141.000000	0.743605
1140.000000	0.741066
1139.000000	0.739121
1138.000000	0.738060
1137.000000	0.738142
1136.000000	0.739370
1135.000000	0.741685
1134.000000	0.745165
1133.000000	0.749888
1132.000000	0.755680
1131.000000	0.762289
1130.000000	0.769629
1129.000000	0.777603
1128.000000	0.785919
1127.000000	0.794291
1126.000000	0.802694
1125.000000	0.811165
1124.000000	0.819518
1123.000000	0.827583
1122.000000	0.835525
1121.000000	0.843610
1120.000000	0.851828
1119.000000	0.860105
1118.000000	0.868640
1117.000000	0.877664
1116.000000	0.887028
1115.000000	0.896392
1114.000000	0.905636
1113.000000	0.914669
1112.000000	0.923107
1111.000000	0.930581
1110.000000	0.937154
1109.000000	0.943021
1108.000000	0.947996
1107.000000	0.951816
1106.000000	0.954655
1105.000000	0.956776
1104.000000	0.958065
1103.000000	0.958371
1102.000000	0.958030
1101.000000	0.957549
1100.000000	0.957030
1099.000000	0.956463
1098.000000	0.956216
1097.000000	0.956720
1096.000000	0.957982
1095.000000	0.959911
1094.000000	0.962777
1093.000000	0.966896
1092.000000	0.972160
1091.000000	0.978336
1090.000000	0.985581
1089.000000	0.994086
1088.000000	1.003531
1087.000000	1.013464
1086.000000	1.023881
1085.000000	1.034903
1084.000000	1.046136
1083.000000	1.057013
1082.000000	1.067478
1081.000000	1.077629
1080.000000	1.086937
1079.000000	1.094623
1078.000000	1.100505
1077.000000	1.104638
1076.000000	1.106677
1075.000000	1.106332
1074.000000	1.104123
1073.000000	1.100887
1072.000000	1.096950
1071.000000	1.092632
1070.000000	1.088891
1069.000000	1.086700
1068.000000	1.086227
1067.000000	1.087310
1066.000000	1.090175
1065.000000	1.095028
1064.000000	1.101367
1063.000000	1.108436
1062.000000	1.116056
1061.000000	1.124217
1060.000000	1.132340
1059.000000	1.139791
1058.000000	1.146721
1057.000000	1.153525
1056.000000	1.159910
1055.000000	1.165373
1054.000000	1.170134
1053.000000	1.174673
1052.000000	1.178730
1051.000000	1.181833
1050.000000	1.184301
1049.000000	1.186697
1048.000000	1.188868
1047.000000	1.190532
1046.000000	1.192182
1045.000000	1.194409
1044.000000	1.196962
1043.000000	1.199454
1042.000000	1.202326
1041.000000	1.206162
1040.000000	1.210636
1039.000000	1.215126
1038.000000	1.219731
1037.000000	1.224658
1036.000000	1.229206
1035.000000	1.232491
1034.000000	1.234646
1033.000000	1.236235
1032.000000	1.237092
1031.000000	1.236837
1030.000000	1.235906
1029.000000	1.234851
1028.000000	1.233339
1027.000000	1.230858
1026.000000	1.227743
1025.000000	1.224515
1024.000000	1.220805
1023.000000	1.216072
1022.000000	1.210643
1021.000000	1.204999
1020.000000	1.198792
1019.000000	1.191470
1018.000000	1.183288
1017.000000	1.174710
1016.000000	1.165463
1015.000000	1.155167
1014.000000	1.144141
1013.000000	1.132842
1012.000000	1.121092
1011.000000	1.108612
1010.000000	1.095764
1009.000000	1.082978
1008.000000	1.070101
1007.000000	1.056909
1006.000000	1.043661
1005.000000	1.030626
1004.000000	1.017533
1003.000000	1.004079
1002.000000	0.990481
1001.000000	0.977022
1000.000000	0.963560
999.000000	0.949893
998.000000	0.936180
997.000000	0.922611
996.000000	0.908966
995.000000	0.894954
994.000000	0.880531
993.000000	0.865620
992.000000	0.849925
991.000000	0.833212
990.000000	0.815584
989.000000	0.797150
988.000000	0.777756
987.000000	0.757321
986.000000	0.735959
985.000000	0.713792
984.000000	0.690837
983.000000	0.667199
982.000000	0.643228
981.000000	0.619231
980.000000	0.595415
979.000000	0.572043
978.000000	0.549405
977.000000	0.527650
976.000000	0.506796
975.000000	0.486933
974.000000	0.468203
973.000000	0.450630
972.000000	0.434126
971.000000	0.418644
970.000000	0.404171
969.000000	0.390607
968.000000	0.377830
967.000000	0.365779
966.000000	0.354418
965.000000	0.343636
964.000000	0.333310
963.000000	0.323412
962.000000	0.313925
961.000000	0.304758
960.000000	0.295853
959.000000	0.287252
958.000000	0.279001
957.000000	0.271034
956.000000	0.263275
955.000000	0.255754
954.000000	0.248516
953.000000	0.241539
952.000000	0.234802
951.000000	0.228371
950.000000	0.222331
949.000000	0.216711
948.000000	0.211586
947.000000	0.207086
946.000000	0.203257
945.000000	0.200002
944.000000	0.197196
943.000000	0.194782
942.000000	0.192660
941.000000	0.190632
940.000000	0.188560
939.000000	0.186451
938.000000	0.184351
937.000000	0.182245
936.000000	0.180134
935.000000	0.178094
934.000000	0.176169
933.000000	0.174323
932.000000	0.172561
931.000000	0.170965
930.000000	0.169556
929.000000	0.168231
928.000000	0.166901
927.000000	0.165570
926.000000	0.164210
925.000000	0.162693
924.000000	0.160920
923.000000	0.158909
922.000000	0.156672
921.000000	0.154151
920.000000	0.151329
919.000000	0.148291
918.000000	0.145100
917.000000	0.141725
916.000000	0.138164
915.000000	0.134472
914.000000	0.130642
913.000000	0.126558
912.000000	0.122173
911.000000	0.117597
910.000000	0.112948
909.000000	0.108266
908.000000	0.103638
907.000000	0.099265
906.000000	0.095300
905.000000	0.091767
904.000000	0.088689
903.000000	0.086136
902.000000	0.084092
901.000000	0.082399
900.000000	0.080914
899.000000	0.079573
898.000000	0.078255
897.000000	0.076756
896.000000	0.074976
895.000000	0.072969
894.000000	0.070775
893.000000	0.068327
892.000000	0.065606
891.000000	0.062706
890.000000	0.059679
889.000000	0.056458
888.000000	0.053030
887.000000	0.049507
886.000000	0.045998
885.000000	0.042527
884.000000	0.039166
883.000000	0.036068
882.000000	0.033298
881.000000	0.030786
880.000000	0.028513
879.000000	0.026580
878.000000	0.025028
877.000000	0.023773
876.000000	0.022773
875.000000	0.022090
874.000000	0.021723
873.000000	0.021535
872.000000	0.021433
871.000000	0.021452
870.000000	0.021608
869.000000	0.021846
868.000000	0.022161
867.000000	0.022624
866.000000	0.023191
865.000000	0.023675
864.000000	0.023938
863.000000	0.023986
862.000000	0.023810
861.000000	0.023347
860.000000	0.022637
859.000000	0.021850
858.000000	0.021073
857.000000	0.020228
856.000000	0.019233
855.000000	0.018114
854.000000	0.016874
853.000000	0.015460
852.000000	0.013906
851.000000	0.012351
850.000000	0.010863
849.000000	0.009395
848.000000	0.007965
847.000000	0.006707
846.000000	0.005688
845.000000	0.004850
844.000000	0.004205
843.000000	0.003888
842.000000	0.003983
841.000000	0.004428
840.000000	0.005158
839.000000	0.006180
838.000000	0.007441
837.000000	0.008774
836.000000	0.010049
835.000000	0.011202
834.000000	0.012075
833.000000	0.012418
832.000000	0.012134
831.000000	0.011371
830.000000	0.010335
829.000000	0.009160
828.000000	0.008036
827.000000	0.007242
826.000000	0.006931
825.000000	0.007033
824.000000	0.007435
823.000000	0.008101
822.000000	0.008956
821.000000	0.009855
820.000000	0.010740
819.000000	0.011677
818.000000	0.012675
817.000000	0.013641
816.000000	0.014551
815.000000	0.015482
814.000000	0.016443
813.000000	0.017356
812.000000	0.018256
811.000000	0.019348
810.000000	0.020795
809.000000	0.022596
808.000000	0.024728
807.000000	0.027242
806.000000	0.030141
805.000000	0.033319
804.000000	0.036702
803.000000	0.040297
802.000000	0.044044
801.000000	0.047766
800.000000	0.051305
799.000000	0.054575
798.000000	0.057441
797.000000	0.059737
796.000000	0.061498
795.000000	0.063032
794.000000	0.064691
793.000000	0.066722
792.000000	0.069365
791.000000	0.072922
790.000000	0.077649
789.000000	0.083708
788.000000	0.091313
787.000000	0.100707
786.000000	0.111890
785.000000	0.124370
784.000000	0.137174
783.000000	0.148948
782.000000	0.158120
781.000000	0.163352
780.000000	0.164167
779.000000	0.161218
778.000000	0.155840
777.000000	0.149451
776.000000	0.143212
775.000000	0.137902
774.000000	0.133806
773.000000	0.130770
772.000000	0.128507
771.000000	0.126806
770.000000	0.125521
769.000000	0.124540
768.000000	0.123862
767.000000	0.123535
766.000000	0.123447
765.000000	0.123290
764.000000	0.122797
763.000000	0.121865
762.000000	0.120414
761.000000	0.118319
760.000000	0.115559
759.000000	0.112300
758.000000	0.108709
757.000000	0.104829
756.000000	0.100696
755.000000	0.096425
754.000000	0.092111
753.000000	0.087787
752.000000	0.083545
751.000000	0.079551
750.000000	0.075870
749.000000	0.072431
748.000000	0.069202
747.000000	0.066250
746.000000	0.063582
745.000000	0.061092
744.000000	0.058754
743.000000	0.056695
742.000000	0.055016
741.000000	0.053678
740.000000	0.052631
739.000000	0.051896
738.000000	0.051481
737.000000	0.051334
736.000000	0.051468
735.000000	0.051975
734.000000	0.052871
733.000000	0.054053
732.000000	0.055459
731.000000	0.057120
730.000000	0.059002
729.000000	0.060971
728.000000	0.062981
727.000000	0.065147
726.000000	0.067571
725.000000	0.070212
724.000000	0.073000
723.000000	0.075922
722.000000	0.078953
721.000000	0.082012
720.000000	0.085065
719.000000	0.088161
718.000000	0.091304
717.000000	0.094419
716.000000	0.097483
715.000000	0.100533
714.000000	0.103505
713.000000	0.106215
712.000000	0.108569
711.000000	0.110660
710.000000	0.112588
709.000000	0.114321
708.000000	0.115820
707.000000	0.117130
706.000000	0.118289
705.000000	0.119276
704.000000	0.120125
703.000000	0.120967
702.000000	0.121897
701.000000	0.122937
700.000000	0.124172
699.000000	0.125763
698.000000	0.127713
697.000000	0.129774
696.000000	0.131653
695.000000	0.133207
694.000000	0.134358
693.000000	0.135015
692.000000	0.135216
691.000000	0.135187
690.000000	0.135146
689.000000	0.135174
688.000000	0.135330
687.000000	0.135735
686.000000	0.136436
685.000000	0.137347
684.000000	0.138446
683.000000	0.139848
682.000000	0.141605
681.000000	0.143603
680.000000	0.145768
679.000000	0.148199
678.000000	0.150944
677.000000	0.153851
676.000000	0.156751
675.000000	0.159615
674.000000	0.162439
673.000000	0.165089
672.000000	0.167365
671.000000	0.169190
670.000000	0.170668
669.000000	0.171966
668.000000	0.173260
667.000000	0.174678
666.000000	0.176043
665.000000	0.177058
664.000000	0.177670
663.000000	0.177975
662.000000	0.178057
661.000000	0.177894
660.000000	0.177493
659.000000	0.176994
658.000000	0.176568
657.000000	0.176305
656.000000	0.176268
655.000000	0.176509
654.000000	0.177015
653.000000	0.177736
652.000000	0.178659
651.000000	0.179800
650.000000	0.181120
649.000000	0.182543
648.000000	0.184062
647.000000	0.185730
646.000000	0.187505
645.000000	0.189219
644.000000	0.190751
643.000000	0.192136
642.000000	0.193462
641.000000	0.194741
640.000000	0.195939
639.000000	0.197069
638.000000	0.198173
637.000000	0.199279
636.000000	0.200391
635.000000	0.201493
634.000000	0.202526
633.000000	0.203441
632.000000	0.204315
631.000000	0.205319
630.000000	0.206557
629.000000	0.208009
628.000000	0.209645
627.000000	0.211484
626.000000	0.213500
625.000000	0.215596
624.000000	0.217729
623.000000	0.219961
622.000000	0.222305
621.000000	0.224625
620.000000	0.226741
619.000000	0.228546
618.000000	0.229990
617.000000	0.231063
616.000000	0.231865
615.000000	0.232589
614.000000	0.233352
613.000000	0.234107
612.000000	0.234740
611.000000	0.235193
610.000000	0.235404
609.000000	0.235269
608.000000	0.234752
607.000000	0.233982
606.000000	0.233139
605.000000	0.232310
604.000000	0.231522
603.000000	0.230824
602.000000	0.230221
601.000000	0.229625
600.000000	0.228999
599.000000	0.228467
598.000000	0.228157
597.000000	0.228052
596.000000	0.228079
595.000000	0.228251
594.000000	0.228579
593.000000	0.228954
592.000000	0.229251
591.000000	0.229513
590.000000	0.229939
589.000000	0.230729
588.000000	0.232003
587.000000	0.233755
586.000000	0.235807
585.000000	0.237914
584.000000	0.239993
583.000000	0.242132
582.000000	0.244322
581.000000	0.246353
580.000000	0.248052
579.000000	0.249473
578.000000	0.250731
577.000000	0.251741
576.000000	0.252277
575.000000	0.252249
574.000000	0.251781
573.000000	0.251067
572.000000	0.250247
571.000000	0.249382
570.000000	0.248447
569.000000	0.247384
568.000000	0.246257
567.000000	0.245271
566.000000	0.244585
565.000000	0.244194
564.000000	0.244054
563.000000	0.244172
562.000000	0.244455
561.000000	0.244650
560.000000	0.244528
559.000000	0.244079
558.000000	0.243430
557.000000	0.242703
556.000000	0.242014
555.000000	0.241478
554.000000	0.241123
553.000000	0.240907
552.000000	0.240862
551.000000	0.241116
550.000000	0.241702
549.000000	0.242556
548.000000	0.243715
547.000000	0.245323
546.000000	0.247391
545.000000	0.249748
544.000000	0.252354
543.000000	0.255391
542.000000	0.258976
541.000000	0.263002
540.000000	0.267288
539.000000	0.271704
538.000000	0.276048
537.000000	0.280031
536.000000	0.283435
535.000000	0.286194
534.000000	0.288268
533.000000	0.289623
532.000000	0.290349
531.000000	0.290648
530.000000	0.290703
529.000000	0.290611
528.000000	0.290441
527.000000	0.290235
526.000000	0.289904
525.000000	0.289330
524.000000	0.288582
523.000000	0.287871
522.000000	0.287284
521.000000	0.286686
520.000000	0.285880
519.000000	0.284679
518.000000	0.282838
517.000000	0.280138
516.000000	0.276619
515.000000	0.272573
514.000000	0.268231
513.000000	0.263574
512.000000	0.258553
511.000000	0.253283
510.000000	0.247951
509.000000	0.242641
508.000000	0.237376
507.000000	0.232244
506.000000	0.227448
505.000000	0.223314
504.000000	0.220179
503.000000	0.217922
502.000000	0.215603
501.000000	0.212196
500.000000	0.207829
499.000000	0.203686
498.000000	0.200680
497.000000	0.198685
496.000000	0.197185
495.000000	0.196097
494.000000	0.195573
493.000000	0.195456
492.000000	0.195429
491.000000	0.195504
490.000000	0.195935
489.000000	0.196839
488.000000	0.198220
487.000000	0.200097
486.000000	0.202338
485.000000	0.204640
484.000000	0.206884
483.000000	0.209246
482.000000	0.211737
481.000000	0.214044
480.000000	0.216008
479.000000	0.217841
478.000000	0.219595
477.000000	0.220889
476.000000	0.221470
475.000000	0.221612
474.000000	0.221669
473.000000	0.221463
472.000000	0.220570
471.000000	0.218962
470.000000	0.216766
469.000000	0.213847
468.000000	0.210078
467.000000	0.205696
466.000000	0.201059
465.000000	0.196275
464.000000	0.191423
463.000000	0.186769
462.000000	0.182398
461.000000	0.178014
460.000000	0.173453
459.000000	0.168947
458.000000	0.164498
457.000000	0.159639
456.000000	0.154358
455.000000	0.149335
454.000000	0.144924
453.000000	0.140712
452.000000	0.136307
451.000000	0.132050
450.000000	0.128424
449.000000	0.125318
448.000000	0.122448
447.000000	0.119904
446.000000	0.117724
445.000000	0.115496
444.000000	0.112920
443.000000	0.110255
442.000000	0.107730
441.000000	0.105139
440.000000	0.102505
439.000000	0.100376
438.000000	0.098967
437.000000	0.097633
436.000000	0.095759
435.000000	0.093596
434.000000	0.091543
433.000000	0.089349
432.000000	0.086758
431.000000	0.084135
430.000000	0.081733
429.000000	0.079158
428.000000	0.076234
427.000000	0.073595
426.000000	0.071615
425.000000	0.069622
424.000000	0.066951
423.000000	0.063971
422.000000	0.061250
421.000000	0.058615
420.000000	0.055842
419.000000	0.053016
418.000000	0.049742
417.000000	0.045478
416.000000	0.040569
415.000000	0.036169
414.000000	0.032683
413.000000	0.029089
412.000000	0.024748
411.000000	0.020603
410.000000	0.017359
409.000000	0.013994
408.000000	0.009721
407.000000	0.005748
406.000000	0.003016
405.000000	0.000900
404.000000	-0.000853
403.000000	-0.000679
402.000000	0.002393
401.000000	0.006659
400.000000	0.010344
